#Wave		#Intensity
1.699584	344.321411
1.699649	358.668121
1.699714	349.043243
1.699779	310.738159
1.699844	353.702240
1.699908	387.093567
1.699973	348.801758
1.700038	382.182373
1.700103	382.116272
1.700168	262.659515
1.700233	343.785706
1.700298	381.918060
1.700363	362.759430
1.700428	419.964600
1.700493	386.491486
1.700558	353.029968
1.700623	367.278473
1.700688	338.600830
1.700753	309.933105
1.700818	357.553314
1.700883	347.958435
1.700948	352.664032
1.701013	362.132904
1.701078	347.778076
1.701143	281.032349
1.701208	385.757446
1.701273	457.115021
1.701338	366.581024
1.701403	390.317566
1.701468	380.731842
1.701534	404.457733
1.701599	423.417908
1.701664	409.074768
1.701729	370.957245
1.701794	375.648254
1.701859	375.583405
1.701925	366.011780
1.701990	408.721802
1.702055	356.381927
1.702120	427.584503
1.702186	403.760132
1.702251	417.938354
1.702316	394.123840
1.702381	351.326904
1.702447	375.000488
1.702512	346.459686
1.702577	408.087585
1.702643	403.272797
1.702708	412.690399
1.702773	379.419983
1.702839	379.354553
1.702904	365.065796
1.702969	393.444641
1.703035	364.939941
1.703100	464.388947
1.703166	412.192566
1.703231	407.384491
1.703297	364.688385
1.703362	454.598053
1.703427	378.766449
1.703493	426.038818
1.703558	340.772339
1.703624	359.642151
1.703689	430.549957
1.703755	421.014801
1.703820	463.509460
1.703886	425.598633
1.703952	368.788635
1.704017	458.542786
1.704083	363.935181
1.704148	344.970062
1.704214	354.360260
1.704280	373.195221
1.704345	415.639557
1.704411	373.066742
1.704476	387.167175
1.704542	467.353088
1.704608	353.994446
1.704674	457.753998
1.704739	476.548431
1.704805	410.421600
1.704871	372.617554
1.704936	381.985168
1.705002	377.204407
1.705068	443.138947
1.705134	476.056732
1.705199	391.147644
1.705265	442.910309
1.705331	456.967163
1.705397	376.815308
1.705463	419.134949
1.705528	376.685730
1.705594	423.698608
1.705660	390.677094
1.705726	447.083649
1.705792	451.712158
1.705858	451.634521
1.705924	465.668030
1.705989	399.747284
1.706056	409.082794
1.706121	413.713806
1.706187	376.038818
1.706253	507.565186
1.706319	352.415283
1.706385	446.316010
1.706451	455.633850
1.706517	417.984009
1.706583	399.129639
1.706649	399.061096
1.706715	441.238831
1.706781	441.163055
1.706847	436.394897
1.706913	412.861908
1.706980	431.554260
1.707046	506.520203
1.707112	407.960144
1.707178	412.578491
1.707244	431.258026
1.707310	468.678284
1.707376	374.878296
1.707443	482.572968
1.707509	416.908997
1.707575	458.989563
1.707641	412.083191
1.707707	430.740326
1.707773	468.115692
1.707840	407.190796
1.707906	421.159607
1.707972	346.227417
1.708038	523.929993
1.708105	444.328705
1.708171	434.899841
1.708237	364.692169
1.708303	509.546539
1.708370	448.697998
1.708436	420.582275
1.708503	387.803833
1.708569	415.766571
1.708635	490.427063
1.708702	518.362610
1.708768	434.229370
1.708834	471.501648
1.708901	429.413055
1.708967	406.005829
1.709034	531.916504
1.709100	433.857513
1.709167	499.083923
1.709233	457.026581
1.709299	503.575714
1.709366	456.870056
1.709432	428.824982
1.709499	493.996338
1.709566	512.549927
1.709632	517.120911
1.709699	451.821106
1.709765	428.458008
1.709832	451.666443
1.709898	432.966888
1.709965	525.988037
1.710032	525.898010
1.710098	409.478790
1.710165	572.241760
1.710231	460.505981
1.710298	502.284210
1.710365	478.948364
1.710431	432.374542
1.710498	423.003784
1.710565	483.350220
1.710631	446.093109
1.710698	455.308838
1.710765	445.940552
1.710832	431.931030
1.710898	473.649780
1.710965	482.854462
1.711032	473.487823
1.711099	459.483154
1.711165	552.213623
1.711232	454.686401
1.711299	468.525299
1.711366	463.807129
1.711433	431.266907
1.711500	468.285095
1.711566	537.740479
1.711633	458.855255
1.711700	486.581512
1.711767	495.765015
1.711834	542.005615
1.711901	500.227386
1.711968	467.725342
1.712035	444.494690
1.712102	550.894104
1.712169	462.857147
1.712236	430.383636
1.712303	527.476929
1.712370	504.255859
1.712437	467.166504
1.712504	554.954529
1.712571	462.383148
1.712638	513.157715
1.712705	425.247284
1.712772	485.253723
1.712839	475.929565
1.712906	508.187561
1.712973	424.957062
1.713040	397.174683
1.713107	461.752228
1.713175	540.157898
1.713242	544.681702
1.713309	470.746246
1.713376	442.979706
1.713443	415.222626
1.713511	447.441406
1.713578	493.485199
1.713645	511.845917
1.713712	516.369080
1.713779	516.281006
1.713847	502.366394
1.713914	497.672668
1.713981	483.765930
1.714048	474.470428
1.714116	515.841064
1.714183	552.592651
1.714250	501.852783
1.714318	497.163879
1.714385	506.284302
1.714453	556.817871
1.714520	464.702637
1.714587	455.422974
1.714655	551.933838
1.714722	510.451782
1.714789	510.364838
1.714857	473.501099
1.714924	528.576233
1.714992	500.912994
1.715059	514.611938
1.715127	519.118286
1.715194	486.877563
1.715262	491.387054
1.715329	459.162048
1.715397	482.038055
1.715464	537.036682
1.715532	422.213379
1.715599	555.207825
1.715667	445.008209
1.715734	499.975647
1.715802	587.027466
1.715870	559.415283
1.715937	518.058777
1.716005	545.473511
1.716073	549.963684
1.716140	572.781372
1.716208	513.124817
1.716275	531.360291
1.716343	599.968567
1.716411	526.600403
1.716478	544.824219
1.716546	544.731567
1.716614	512.601318
1.716682	507.938141
1.716749	549.028931
1.716817	539.786682
1.716885	521.400146
1.716953	539.603149
1.717021	553.227783
1.717088	543.991028
1.717156	489.051636
1.717224	566.655090
1.717292	589.403870
1.717360	607.576721
1.717427	602.906006
1.717495	548.003235
1.717563	557.041931
1.717631	566.077576
1.717699	552.288269
1.717767	616.084717
1.717835	561.226257
1.717903	520.072571
1.717971	579.280701
1.718039	597.424255
1.718107	569.964478
1.718175	524.278259
1.718243	551.538269
1.718311	519.542847
1.718379	537.681091
1.718447	533.033936
1.718515	605.824585
1.718583	610.276062
1.718651	591.958374
1.718719	555.435852
1.718787	523.477722
1.718855	591.656982
1.718923	587.006104
1.718992	568.707825
1.719060	623.197998
1.719128	545.774231
1.719196	604.797180
1.719264	527.402771
1.719332	550.042297
1.719401	545.403992
1.719469	522.590149
1.719537	567.936401
1.719605	554.211914
1.719674	522.324280
1.719742	635.765198
1.719810	576.632019
1.719878	603.772095
1.719947	630.902954
1.720015	594.491150
1.720083	553.554382
1.720152	594.289612
1.720220	616.867798
1.720288	571.413025
1.720357	571.316162
1.720425	548.551880
1.720493	543.926208
1.720562	593.685425
1.720630	552.804199
1.720699	616.136353
1.720767	557.146545
1.720835	593.283142
1.720904	552.429626
1.720972	606.664185
1.721041	602.034851
1.721109	579.303772
1.721178	552.055420
1.721246	637.923157
1.721315	633.291626
1.721383	669.366333
1.721452	646.643066
1.721520	601.321472
1.721589	664.505920
1.721658	583.039124
1.721726	578.421509
1.721795	537.660156
1.721864	578.225647
1.721932	551.028015
1.722001	582.545776
1.722069	641.143433
1.722138	636.520569
1.722207	604.817871
1.722275	586.664307
1.722344	667.781738
1.722413	645.112366
1.722481	631.471680
1.722550	644.894104
1.722619	599.695129
1.722688	554.511475
1.722756	631.044495
1.722825	666.991333
1.722894	594.783569
1.722963	639.734680
1.723032	581.069153
1.723101	662.036621
1.723169	612.392883
1.723238	625.795715
1.723307	594.180359
1.723376	598.580505
1.723445	553.480835
1.723514	593.879028
1.723583	638.761902
1.723651	607.170959
1.723720	607.068359
1.723789	647.430115
1.723858	579.891479
1.723927	746.090820
1.723996	620.139404
1.724065	588.583557
1.724134	664.852295
1.724203	574.910217
1.724272	588.285278
1.724341	709.415039
1.724410	588.086548
1.724479	686.733154
1.724549	632.764832
1.724618	587.788635
1.724687	677.412903
1.724756	601.046387
1.724825	596.460205
1.724894	551.520447
1.724963	663.506042
1.725032	667.876404
1.725101	596.057495
1.725171	703.497925
1.725240	609.296631
1.725309	595.755676
1.725378	676.270081
1.725447	676.155945
1.725517	653.656372
1.725586	649.069702
1.725655	626.582214
1.725724	693.598999
1.725794	581.630005
1.725863	603.898499
1.725932	630.632019
1.726002	639.469238
1.726071	621.477173
1.726140	625.842590
1.726210	643.615234
1.726279	692.663452
1.726348	598.717773
1.726418	701.364441
1.726487	674.446960
1.726557	660.935852
1.726626	692.079651
1.726696	714.284302
1.726765	709.700378
1.726834	589.085876
1.726904	629.144775
1.726973	673.651367
1.727043	637.853699
1.727112	686.803589
1.727182	642.097717
1.727251	673.197327
1.727321	632.966309
1.727390	623.946106
1.727460	650.577026
1.727530	699.475220
1.727599	668.175781
1.727669	650.248230
1.727738	654.591675
1.727808	676.742676
1.727878	676.628662
1.727947	600.851868
1.728017	734.250854
1.728087	685.185364
1.728156	689.518494
1.728226	636.029236
1.728296	720.415344
1.728365	746.971558
1.728435	720.172729
1.728505	644.490540
1.728575	639.937988
1.728644	724.252319
1.728714	719.687866
1.728784	661.823730
1.728854	661.712341
1.728923	674.921753
1.728993	679.247742
1.729063	692.449768
1.729133	661.266968
1.729203	643.406555
1.729273	740.902161
1.729343	838.364990
1.729412	674.127197
1.729482	736.093994
1.729552	647.299072
1.729622	753.577576
1.729692	717.994324
1.729762	673.560364
1.729832	704.461060
1.729902	704.342590
1.729972	695.365967
1.730042	642.109009
1.730112	664.138977
1.730182	708.295776
1.730252	743.585571
1.730322	672.654785
1.730392	681.390930
1.730462	690.124084
1.730532	805.009460
1.730602	632.401123
1.730672	782.630615
1.730743	751.552795
1.730813	711.645081
1.730883	791.074890
1.730953	671.637878
1.731023	799.644897
1.731093	737.669983
1.731164	759.628235
1.731234	662.355164
1.731304	719.638367
1.731374	706.274841
1.731444	776.771790
1.731515	701.624817
1.731585	732.390930
1.731655	767.557922
1.731725	793.892090
1.731796	758.480591
1.731866	736.308105
1.731936	793.492188
1.732007	788.951416
1.732077	775.598511
1.732147	744.625793
1.732218	709.258179
1.732288	801.635498
1.732358	735.443115
1.732429	726.513489
1.732499	708.782043
1.732570	818.703918
1.732640	774.557556
1.732710	730.425964
1.732781	752.300476
1.732851	734.579529
1.732922	818.017151
1.732992	817.879944
1.733063	760.588623
1.733133	707.712280
1.733204	813.073364
1.733274	821.725464
1.733345	729.323730
1.733416	843.413696
1.733486	790.567688
1.733557	755.304688
1.733627	658.585449
1.733698	860.407349
1.733769	772.481079
1.733839	829.400269
1.733910	763.446838
1.733980	745.771240
1.734051	754.418518
1.734122	763.062866
1.734193	868.167358
1.734263	828.566284
1.734334	771.445618
1.734405	815.141113
1.734475	815.004456
1.734546	727.247681
1.734617	801.590454
1.734688	818.974304
1.734758	748.776123
1.734829	796.809509
1.734900	801.053345
1.734971	809.672302
1.735042	743.898560
1.735113	831.276733
1.735183	787.393433
1.735254	717.282715
1.735325	826.486145
1.735396	826.347656
1.735467	782.494507
1.735538	799.846436
1.735609	843.412598
1.735680	764.624329
1.735751	790.707581
1.735822	794.942993
1.735893	724.936462
1.735964	833.973999
1.736035	890.587524
1.736106	912.262878
1.736177	829.191040
1.736248	894.503723
1.736319	820.188049
1.736390	955.271912
1.736461	819.913513
1.736532	819.776306
1.736603	741.163025
1.736674	810.783813
1.736745	775.781555
1.736817	854.088440
1.736888	840.874939
1.736959	801.529053
1.737030	858.015259
1.737101	879.645081
1.737172	883.851868
1.737244	909.823364
1.737315	840.031250
1.737386	744.151917
1.737457	804.942017
1.737528	848.310486
1.737600	826.420654
1.737671	804.538208
1.737742	869.625610
1.737814	743.405579
1.737885	838.908081
1.737956	903.957031
1.738028	847.317993
1.738099	860.209839
1.738170	868.753601
1.738242	855.579224
1.738313	807.670715
1.738384	829.243713
1.738456	772.673828
1.738527	889.728455
1.738599	837.506836
1.738670	837.366821
1.738742	876.268616
1.738813	811.063599
1.738885	845.620178
1.738956	880.165222
1.739028	875.683105
1.739099	806.187317
1.739171	797.385437
1.739242	853.579834
1.739314	883.762451
1.739385	848.963257
1.739457	887.797913
1.739528	922.289673
1.739600	848.537964
1.739672	917.653076
1.739743	882.877197
1.739815	791.860535
1.739887	882.582397
1.739958	951.645569
1.740030	860.662964
1.740101	886.464600
1.740173	916.581055
1.740245	877.523071
1.740317	868.732483
1.740388	842.659485
1.740460	885.724976
1.740532	885.577148
1.740604	911.344360
1.740675	876.644653
1.740747	902.404724
1.740819	798.645996
1.740891	798.512756
1.740963	940.793152
1.741034	850.024414
1.741106	979.306335
1.741178	961.889343
1.741250	953.103516
1.741322	905.512878
1.741394	892.428101
1.741466	892.279236
1.741538	874.891174
1.741610	926.454346
1.741681	939.224976
1.741753	964.914246
1.741825	904.456238
1.741897	895.692993
1.741969	925.682129
1.742041	929.832581
1.742113	895.245056
1.742185	890.792419
1.742257	894.946533
1.742329	933.514526
1.742401	989.274475
1.742474	946.104797
1.742546	928.748047
1.742618	868.406616
1.742690	958.526733
1.742762	889.605286
1.742834	966.801086
1.742906	966.639954
1.742978	970.774353
1.743051	970.612610
1.743123	914.628479
1.743195	914.476074
1.743267	957.249756
1.743340	909.879517
1.743412	1012.716003
1.743484	952.480957
1.743556	965.191528
1.743629	960.741699
1.743701	921.986877
1.743773	977.572083
1.743845	973.122437
1.743918	1071.542236
1.743990	947.085632
1.744062	925.504211
1.744135	1071.007080
1.744207	1010.862305
1.744280	950.737549
1.744352	916.324158
1.744424	937.577515
1.744497	963.104187
1.744569	950.104614
1.744642	915.714172
1.744714	949.788330
1.744786	962.463135
1.744859	1005.071960
1.744931	966.418945
1.745004	927.778809
1.745076	927.624451
1.745149	978.758728
1.745221	978.595886
1.745294	1012.614075
1.745367	918.463318
1.745439	986.649902
1.745512	1020.649780
1.745584	973.512268
1.745657	1054.462891
1.745729	951.846558
1.745802	1071.182739
1.745875	1058.203735
1.745947	1036.696533
1.746020	925.620239
1.746093	985.173828
1.746166	1044.707520
1.746238	1036.007080
1.746311	993.207825
1.746384	1099.592285
1.746456	1001.400146
1.746529	1077.923828
1.746602	1090.524170
1.746675	919.976868
1.746747	1017.768127
1.746820	1034.629883
1.746893	1008.915710
1.746966	949.159546
1.747039	1008.580383
1.747112	1016.922546
1.747184	982.719971
1.747257	1020.838074
1.747330	1114.229736
1.747403	1105.540405
1.747476	931.050415
1.747549	1020.159729
1.747622	1062.489746
1.747695	1058.063965
1.747768	1049.391113
1.747841	1027.977539
1.747914	1032.053955
1.747987	1065.854004
1.748060	1023.219666
1.748133	1052.764893
1.748206	1061.078613
1.748279	1107.582153
1.748352	1141.341431
1.748425	1060.550049
1.748498	1064.615479
1.748571	954.178040
1.748644	1178.744263
1.748717	962.339966
1.748791	1055.431152
1.748864	1114.587524
1.748937	995.758911
1.749010	1080.324951
1.749083	1092.853271
1.749156	1139.258667
1.749229	1075.552612
1.749303	1054.205322
1.749376	1155.623657
1.749449	1125.805420
1.749522	1036.753906
1.749596	1133.893677
1.749669	1078.712280
1.749742	1112.369629
1.749816	1154.473389
1.749889	1171.194458
1.749962	1090.678833
1.750035	1044.003784
1.750109	1026.926392
1.750182	1140.840088
1.750256	1127.976929
1.750329	1110.894043
1.750402	1140.272461
1.750476	1106.302979
1.750549	1182.112549
1.750623	1034.176880
1.750696	1135.295654
1.750769	1206.842773
1.750843	1118.043091
1.750916	1063.019409
1.750990	1134.542847
1.751063	1066.883789
1.751137	1037.193237
1.751211	1045.452393
1.751284	1268.665283
1.751358	1116.746094
1.751431	1188.189331
1.751505	1095.312134
1.751578	1179.371338
1.751652	1137.062500
1.751725	1061.082397
1.751799	1077.746338
1.751873	1165.961914
1.751946	1119.474609
1.752020	1207.654053
1.752094	1152.760864
1.752167	1135.744019
1.752241	1114.527100
1.752315	1177.418335
1.752389	1080.522827
1.752462	1223.268677
1.752536	1126.397583
1.752610	1180.840576
1.752684	1168.040161
1.752757	1109.034302
1.752831	1268.457886
1.752905	1146.462402
1.752979	1179.862915
1.753053	1141.884521
1.753127	1204.656616
1.753200	1061.768799
1.753274	1208.453613
1.753348	1099.175049
1.753422	1161.912476
1.753496	1195.271606
1.753570	1161.527710
1.753644	1178.105591
1.753718	1156.951294
1.753792	1144.186279
1.753866	1135.615967
1.753940	1173.135864
1.754014	1172.941772
1.754088	1176.935913
1.754162	1252.119629
1.754236	1264.473389
1.754310	1239.146240
1.754384	1184.528198
1.754458	1247.105957
1.754532	1138.109741
1.754606	1225.775513
1.754680	1129.367432
1.754754	1237.916382
1.754828	1183.352661
1.754902	1174.795288
1.754977	1145.340454
1.755051	1358.299438
1.755125	1224.356689
1.755199	1311.892090
1.755273	1282.433960
1.755347	1127.686890
1.755422	1286.185669
1.755496	1144.014893
1.755570	1177.222046
1.755645	1197.896606
1.755719	1247.776489
1.755793	1247.570190
1.755867	1272.394531
1.755942	1201.275513
1.756016	1238.610596
1.756090	1355.157837
1.756165	1275.722168
1.756239	1279.679688
1.756314	1146.103394
1.756388	1208.418213
1.756462	1233.216064
1.756537	1332.986206
1.756611	1245.303101
1.756685	1320.052979
1.756760	1328.161865
1.756834	1173.917603
1.756909	1252.804321
1.756983	1331.664917
1.757058	1227.425659
1.757132	1285.463867
1.757207	1272.773315
1.757281	1264.245605
1.757356	1185.034424
1.757431	1272.142578
1.757505	1301.028809
1.757580	1358.997314
1.757654	1263.201538
1.757729	1275.456665
1.757804	1229.553101
1.757878	1353.946289
1.757953	1291.434814
1.758028	1353.499023
1.758102	1249.496704
1.758177	1203.635132
1.758252	1406.775635
1.758326	1365.052368
1.758401	1273.561890
1.758476	1323.124268
1.758550	1322.905884
1.758625	1351.711914
1.758700	1351.488647
1.758775	1371.990479
1.758850	1301.310791
1.758924	1317.670410
1.758999	1383.739868
1.759074	1337.946655
1.759149	1296.310181
1.759224	1407.900024
1.759298	1271.041016
1.759373	1361.900635
1.759448	1345.120483
1.759523	1320.069580
1.759598	1311.576782
1.759673	1427.190308
1.759748	1327.688354
1.759823	1410.177612
1.759898	1409.944946
1.759973	1339.433350
1.760048	1454.946777
1.760123	1334.858765
1.760198	1293.318359
1.760273	1313.761597
1.760348	1379.635254
1.760423	1272.028564
1.760498	1346.145874
1.760573	1407.852783
1.760648	1382.853027
1.760723	1366.115967
1.760798	1316.371948
1.760874	1382.168945
1.760949	1344.814209
1.761024	1307.471802
1.761099	1352.618286
1.761174	1368.887939
1.761249	1360.417236
1.761325	1454.994263
1.761400	1458.875488
1.761475	1450.394043
1.761550	1404.837524
1.761626	1400.486816
1.761701	1420.848022
1.761776	1412.378296
1.761851	1387.443237
1.761927	1395.447266
1.762002	1411.679932
1.762077	1386.757202
1.762153	1407.100342
1.762228	1443.891235
1.762303	1332.603027
1.762379	1389.955566
1.762454	1414.396118
1.762529	1368.942749
1.762605	1459.142944
1.762680	1356.162842
1.762756	1450.444214
1.762831	1454.313477
1.762907	1392.460571
1.762982	1581.147461
1.763058	1424.851440
1.763133	1436.933228
1.763209	1407.962646
1.763284	1547.272461
1.763360	1382.877808
1.763435	1472.911987
1.763511	1472.669434
1.763586	1402.701904
1.763662	1418.874023
1.763738	1406.339966
1.763813	1451.202271
1.763889	1450.963257
1.763964	1475.312866
1.764040	1450.485474
1.764116	1503.504272
1.764191	1417.239258
1.764267	1371.956543
1.764343	1371.730713
1.764419	1445.197632
1.764494	1408.119385
1.764570	1432.443726
1.764646	1501.772339
1.764722	1452.428955
1.764797	1444.008545
1.764873	1472.400757
1.764949	1443.533203
1.765025	1484.182129
1.765100	1479.849854
1.765176	1569.527100
1.765252	1413.976563
1.765328	1515.893066
1.765404	1540.155273
1.765480	1588.917358
1.765556	1564.152222
1.765632	1465.896118
1.765708	1465.655029
1.765783	1526.642822
1.765859	1505.985352
1.765935	1534.301636
1.766011	1513.649658
1.766087	1529.717651
1.766163	1582.487549
1.766239	1635.239990
1.766315	1520.808350
1.766391	1557.247314
1.766467	1516.232300
1.766544	1515.982910
1.766620	1491.286255
1.766696	1584.740234
1.766772	1507.088623
1.766848	1498.695679
1.766924	1559.527344
1.767000	1563.342041
1.767076	1656.707275
1.767152	1656.434937
1.767229	1505.602295
1.767305	1590.793823
1.767381	1557.989380
1.767457	1578.069214
1.767533	1622.541504
1.767610	1687.328369
1.767686	1630.138428
1.767762	1666.451050
1.767838	1641.794067
1.767915	1556.197510
1.767991	1620.941895
1.768067	1636.922852
1.768144	1583.858521
1.768220	1644.505859
1.768296	1611.756836
1.768373	1635.847046
1.768449	1517.881470
1.768525	1667.772217
1.768602	1578.240356
1.768678	1752.410767
1.768755	1666.950195
1.768831	1626.124512
1.768908	1573.148804
1.768984	1629.644165
1.769060	1605.057373
1.769137	1637.213745
1.769214	1592.374512
1.769290	1571.857056
1.769367	1624.255493
1.769443	1684.736450
1.769520	1607.525269
1.769596	1672.037476
1.769673	1651.523682
1.769749	1679.582764
1.769826	1707.632568
1.769903	1715.443848
1.769979	1577.625488
1.770056	1690.613281
1.770132	1662.028687
1.770209	1681.971680
1.770286	1649.355225
1.770362	1673.335693
1.770439	1701.349487
1.770516	1688.948486
1.770593	1704.830688
1.770669	1716.668457
1.770746	1740.618042
1.770823	1635.347046
1.770900	1715.823242
1.770976	1788.199829
1.771053	1731.403687
1.771130	1654.449829
1.771207	1763.111938
1.771284	1851.568848
1.771361	1665.735107
1.771437	1649.331421
1.771514	1729.699463
1.771591	1806.009766
1.771668	1773.468506
1.771745	1684.518555
1.771822	1805.120850
1.771899	1704.109009
1.771976	1812.584473
1.772053	1659.249512
1.772130	1658.977295
1.772207	1686.886963
1.772284	1875.800415
1.772361	1758.777466
1.772438	1798.729004
1.772515	1810.504028
1.772592	1721.708008
1.772669	1821.976196
1.772746	1773.421021
1.772823	1720.860962
1.772900	1692.438477
1.772977	1860.974976
1.773054	1828.520020
1.773132	1763.931152
1.773209	1775.694092
1.773286	1799.503418
1.773363	1686.757813
1.773440	1722.620117
1.773517	1830.736572
1.773595	1830.436401
1.773672	1826.122803
1.773749	1697.413818
1.773826	1881.694092
1.773904	1837.259277
1.773981	1836.958008
1.774058	1800.565430
1.774136	1816.308350
1.774213	1824.028320
1.774290	1863.811279
1.774368	1831.445435
1.774445	1791.076416
1.774522	1806.807861
1.774600	1902.645386
1.774677	1922.358154
1.774755	1801.915405
1.774832	1885.695679
1.774909	1913.407349
1.774987	1937.107544
1.775064	1984.809692
1.775142	1912.466919
1.775219	1788.143555
1.775297	1899.841187
1.775374	1927.523071
1.775452	1883.225342
1.775529	1810.958252
1.775607	1942.564087
1.775684	1978.213379
1.775762	1850.025757
1.775840	1945.604614
1.775917	1885.369507
1.775995	1881.067017
1.776072	1996.559326
1.776150	1872.465942
1.776228	1932.036377
1.776305	1867.861450
1.776383	1955.346680
1.776461	1895.178711
1.776538	1898.857544
1.776616	1918.489258
1.776694	1854.368896
1.776772	1909.886597
1.776849	1889.640869
1.776927	1885.345581
1.777005	1908.948608
1.777083	1944.497681
1.777161	1991.987061
1.777238	1911.994507
1.777316	1971.421509
1.777394	2002.954956
1.777472	2118.086670
1.777550	1926.665649
1.777628	1966.150879
1.777706	2017.561401
1.777783	2009.273682
1.777861	2076.572754
1.777939	1988.728760
1.778017	2143.498779
1.778095	2015.910889
1.778173	1947.997437
1.778251	2039.100342
1.778329	2054.663330
1.778407	2006.644531
1.778485	2038.099487
1.778563	1954.348633
1.778641	2021.546143
1.778719	2021.215332
1.778797	2120.142334
1.778875	2056.281006
1.778953	2155.169678
1.779032	2099.260010
1.779110	2150.496826
1.779188	2130.309814
1.779266	2078.397949
1.779344	2010.640137
1.779422	2049.962402
1.779500	2176.489746
1.779579	2104.785156
1.779657	2195.593750
1.779735	2115.984375
1.779813	2127.523926
1.779892	2154.904541
1.779970	2095.143311
1.780048	2023.522095
1.780126	2126.132568
1.780205	2137.660645
1.780283	2141.269043
1.780361	2073.644287
1.780440	2168.265869
1.780518	2096.702393
1.780596	2187.333740
1.780675	2262.116455
1.780753	2277.562988
1.780832	2142.773193
1.780910	2118.706055
1.780988	2114.407471
1.781067	2173.334473
1.781145	2212.488037
1.781224	2208.176025
1.781302	2156.470703
1.781381	2195.607422
1.781459	2175.507324
1.781538	2115.937012
1.781616	2222.160156
1.781695	2190.226074
1.781773	2197.759521
1.781852	2244.741211
1.781931	2137.875000
1.782009	2311.051758
1.782088	2306.730957
1.782166	2227.504395
1.782245	2195.605713
1.782324	2167.658691
1.782402	2187.007080
1.782481	2111.791504
1.782560	2261.138672
1.782638	2355.296143
1.782717	2205.268311
1.782796	2260.030762
1.782875	2196.674316
1.782953	2271.100586
1.783032	2239.246338
1.783111	2238.880371
1.783190	2348.670166
1.783268	2320.752197
1.783347	2379.365723
1.783426	2241.350342
1.783505	2343.204590
1.783584	2311.374512
1.783663	2193.089111
1.783742	2200.590332
1.783820	2255.236572
1.783899	2349.148682
1.783978	2344.837158
1.784057	2258.059082
1.784136	2336.218750
1.784215	2253.395996
1.784294	2327.605713
1.784373	2295.829590
1.784452	2338.617188
1.784531	2255.847900
1.784610	2326.085938
1.784689	2262.955322
1.784768	2368.460693
1.784847	2473.931885
1.784926	2320.647461
1.785005	2347.704346
1.785084	2449.208008
1.785164	2433.135986
1.785243	2330.885010
1.785322	2307.003662
1.785401	2404.531494
1.785480	2357.152588
1.785559	2435.065918
1.785638	2360.297607
1.785718	2434.271240
1.785797	2476.916748
1.785876	2456.950928
1.785955	2487.843506
1.786035	2530.459473
1.786114	2420.554443
1.786193	2416.249756
1.786273	2537.039307
1.786352	2481.906006
1.786431	2512.764160
1.786510	2496.725342
1.786590	2449.438721
1.786669	2550.594238
1.786748	2448.639648
1.786828	2518.524658
1.786907	2440.032715
1.786987	2560.640625
1.787066	2536.806152
1.787146	2403.719727
1.787225	2520.372803
1.787304	2527.763428
1.787384	2581.954346
1.787463	2491.842529
1.787543	2549.920654
1.787622	2631.369629
1.787702	2654.326660
1.787781	2474.629150
1.787861	2637.875244
1.787941	2485.509521
1.788020	2594.168457
1.788100	2453.542969
1.788179	2585.534668
1.788259	2596.792969
1.788339	2495.161621
1.788418	2564.810547
1.788498	2533.261475
1.788578	2602.881348
1.788657	2715.269043
1.788737	2609.811523
1.788817	2539.387695
1.788896	2671.171387
1.788976	2600.760498
1.789056	2549.806641
1.789136	2541.618652
1.789215	2595.603271
1.789295	2610.720215
1.789375	2637.485107
1.789455	2590.450439
1.789535	2718.170654
1.789614	2694.432861
1.789694	2674.584473
1.789774	2619.811768
1.789854	2603.862549
1.789934	2681.037109
1.790014	2618.531250
1.790094	2649.134033
1.790174	2745.653320
1.790254	2873.160645
1.790334	2655.592773
1.790413	2771.444580
1.790493	2809.748047
1.790573	2824.789795
1.790653	2677.108154
1.790734	2684.419189
1.790814	2804.044678
1.790894	2745.502441
1.790974	2694.722656
1.791054	2698.154785
1.791134	2864.145264
1.791214	2766.932861
1.791294	2754.874512
1.791374	2820.191650
1.791454	2719.165771
1.791534	2772.865234
1.791615	2795.613770
1.791695	2795.158447
1.791775	2910.666016
1.791855	2825.166504
1.791935	2774.472168
1.792016	2866.745361
1.792096	2908.770508
1.792176	2757.667969
1.792256	2734.049072
1.792337	2768.353027
1.792417	2841.249756
1.792497	2771.311279
1.792578	2917.507324
1.792658	2766.550537
1.792738	2789.247314
1.792819	2889.081787
1.792899	2788.339355
1.792979	2834.157227
1.793060	2849.117432
1.793140	2968.150391
1.793221	2983.083740
1.793301	2816.898193
1.793381	2912.761230
1.793462	2935.400635
1.793542	2815.522949
1.793623	2976.805664
1.793703	2953.219238
1.793784	2929.640137
1.793864	2986.899902
1.793945	2951.777588
1.794026	2958.992676
1.794106	2889.261230
1.794187	2911.870605
1.794267	2957.548340
1.794348	2976.293945
1.794428	2891.225830
1.794509	3113.712402
1.794590	3093.988525
1.794670	3008.942627
1.794751	3062.244141
1.794832	3019.488281
1.794912	3095.816406
1.794993	3068.430420
1.795074	3129.366455
1.795155	3136.535645
1.795235	3051.579102
1.795316	3058.758301
1.795397	2920.121094
1.795478	3004.051025
1.795559	3076.445801
1.795639	2926.366943
1.795720	3102.288086
1.795801	3155.460693
1.795882	3074.444580
1.795963	3192.762695
1.796044	3184.579102
1.796125	2965.659912
1.796205	3241.008057
1.796286	3117.909424
1.796367	3197.826904
1.796448	3159.015625
1.796529	3135.531006
1.796610	3165.644043
1.796691	3111.547852
1.796772	3114.868408
1.796853	3232.968018
1.796934	3201.839355
1.797015	3224.267090
1.797096	3231.391113
1.797177	3276.747803
1.797258	3207.403076
1.797340	3310.083008
1.797421	3271.328369
1.797502	3205.839111
1.797583	3270.264648
1.797664	3147.500000
1.797745	3013.317871
1.797826	3348.859375
1.797908	3153.601318
1.797989	3168.357666
1.798070	3160.209473
1.798151	3335.234375
1.798232	3277.460693
1.798314	3269.298340
1.798395	3230.625000
1.798476	3291.117188
1.798558	3286.769287
1.798639	3187.114502
1.798720	3361.935547
1.798802	3479.533203
1.798883	3292.254150
1.798964	3219.331787
1.799046	3249.282715
1.799127	3332.544434
1.799208	3335.810791
1.799290	3350.498291
1.799371	3456.543457
1.799453	3292.317383
1.799534	3303.198975
1.799616	3428.224365
1.799697	3408.645996
1.799778	3339.625977
1.799860	3380.916992
1.799942	3433.601807
1.800023	3242.953125
1.800105	3379.269531
1.800186	3397.723389
1.800268	3317.372314
1.800349	3559.991699
1.800431	3494.834961
1.800513	3520.854248
1.800594	3398.762207
1.800676	3496.929199
1.800757	3416.639648
1.800839	3454.041260
1.800921	3495.225586
1.801003	3562.957275
1.801084	3418.214355
1.801166	3398.693115
1.801248	3462.614990
1.801329	3553.059570
1.801411	3510.777832
1.801493	3555.696289
1.801575	3536.168457
1.801656	3531.804688
1.801738	3493.342285
1.801820	3519.292969
1.801902	3522.509277
1.801984	3518.150146
1.802066	3540.297363
1.802148	3649.510742
1.802229	3539.147949
1.802311	3602.911133
1.802393	3655.301514
1.802475	3514.724365
1.802557	3669.245605
1.802639	3506.019043
1.802721	3592.424316
1.802803	3750.638428
1.802885	3632.841064
1.802967	3537.760010
1.803049	3684.568359
1.803131	3691.527344
1.803213	3721.150635
1.803295	3656.333984
1.803377	3663.293945
1.803459	3828.842285
1.803541	3714.959961
1.803623	3737.005371
1.803706	3709.979980
1.803788	3735.792480
1.803870	3799.325928
1.803952	3787.392334
1.804034	3688.713867
1.804116	3918.151123
1.804199	3736.532715
1.804281	3717.077148
1.804363	3852.166748
1.804445	3828.929932
1.804528	3914.973145
1.804610	3680.758545
1.804692	3842.133545
1.804775	3841.510254
1.804857	3758.044189
1.804939	3874.148438
1.805022	3862.226807
1.805104	3854.072754
1.805186	3973.867676
1.805269	3864.109863
1.805351	3758.149414
1.805434	3761.301270
1.805516	3696.759277
1.805598	3981.925781
1.805681	3819.622559
1.805763	3988.151611
1.805846	3773.284424
1.805928	3881.644043
1.806011	3873.500488
1.806093	3854.090088
1.806176	3954.871826
1.806258	3976.761719
1.806341	3949.834473
1.806423	3825.312256
1.806506	4004.854004
1.806589	3824.071777
1.806671	4059.837646
1.806754	3961.638916
1.806836	4028.513428
1.806919	4009.108398
1.807002	3918.464844
1.807084	4056.546875
1.807167	3973.421875
1.807250	4156.424805
1.807333	4020.848389
1.807415	3956.502686
1.807498	4203.102539
1.807581	3951.474365
1.807664	4081.903809
1.807746	4043.799561
1.807829	4155.453613
1.807912	4094.891113
1.807995	4127.909180
1.808078	4232.011230
1.808160	4167.724121
1.808243	4021.164551
1.808326	4218.733398
1.808409	4195.612793
1.808492	4116.417969
1.808575	4186.776367
1.808658	4208.523438
1.808741	4148.049316
1.808824	4240.786621
1.808907	4101.875488
1.808990	4164.708496
1.809073	4212.583008
1.809156	4290.312988
1.809239	4214.950684
1.809322	4176.940430
1.809405	4318.084473
1.809488	4250.217285
1.809571	4167.448242
1.809654	4274.952148
1.809737	4244.421387
1.809820	4236.275391
1.809903	4388.458008
1.809987	4201.351563
1.810070	4114.942871
1.810153	4341.604492
1.810236	4441.505859
1.810319	4373.727051
1.810403	4317.145020
1.810486	4383.482910
1.810569	4352.983398
1.810652	4259.201172
1.810735	4321.792969
1.810819	4451.358398
1.810902	4283.180176
1.810985	4278.765625
1.811069	4359.913574
1.811152	4359.207520
1.811235	4451.472656
1.811319	4428.441895
1.811402	4546.689453
1.811486	4393.554199
1.811569	4411.424316
1.811652	4384.699219
1.811736	4465.724121
1.811819	4513.291016
1.811903	4456.849609
1.811986	4522.969727
1.812070	4492.534180
1.812153	4491.806641
1.812237	4505.925781
1.812320	4523.750977
1.812404	4541.570801
1.812487	4392.441895
1.812571	4647.667480
1.812654	4331.681152
1.812738	4601.666016
1.812822	4563.846680
1.812905	4670.605469
1.812989	4562.368652
1.813072	4565.335449
1.813156	4560.891113
1.813240	4615.719238
1.813323	4733.494141
1.813407	4617.927734
1.813491	4509.803711
1.813575	4646.048340
1.813658	4423.210449
1.813742	4611.236816
1.813826	4706.696289
1.813910	4709.633789
1.813993	4586.803223
1.814077	4545.377930
1.814161	4607.505371
1.814245	4617.851074
1.814329	4713.216309
1.814413	5045.096680
1.814497	4778.208008
1.814580	4888.280273
1.814664	4772.967285
1.814748	4842.374023
1.814832	4719.719238
1.814916	4936.810059
1.815000	4924.935547
1.815084	4761.723145
1.815168	4820.002930
1.815252	4778.631836
1.815336	4825.821777
1.815420	4839.795898
1.815504	4791.065430
1.815588	4963.610840
1.815672	4819.011230
1.815756	4899.333984
1.815840	4972.258789
1.815925	4661.889648
1.816009	4823.261719
1.816093	4874.058594
1.816177	4954.307129
1.816261	4968.236816
1.816345	4937.974609
1.816429	4793.588867
1.816514	4954.782227
1.816598	4755.232422
1.816682	5037.816895
1.816766	4978.132813
1.816851	5010.436035
1.816935	4906.637207
1.817019	4927.908691
1.817104	4894.019043
1.817188	5135.866211
1.817272	5061.520508
1.817356	5027.625000
1.817441	5177.468750
1.817525	5095.803711
1.817610	4995.798340
1.817694	4965.607910
1.817778	5038.248535
1.817863	5118.208496
1.817947	5106.367676
1.818032	5017.451660
1.818116	5152.423340
1.818201	5114.897461
1.818285	5037.028809
1.818370	5098.570801
1.818454	5130.753418
1.818539	5027.251465
1.818623	5231.749023
1.818708	5157.589355
1.818792	5156.755371
1.818877	5122.940918
1.818961	5254.012207
1.819046	5271.479004
1.819131	5277.951660
1.819215	5251.463379
1.819300	5137.107422
1.819385	5180.207520
1.819469	5190.351074
1.819554	5182.191895
1.819639	5298.446777
1.819723	5151.247559
1.819808	5091.887207
1.819893	5259.303223
1.819978	5353.528809
1.820063	5279.539551
1.820147	5285.997070
1.820232	5193.767090
1.820317	5324.486328
1.820402	5108.049805
1.820487	5231.434082
1.820571	5314.599121
1.820656	5346.607910
1.820741	5320.183594
1.820826	5512.819824
1.820911	5482.726074
1.820996	5324.902832
1.821081	5535.689941
1.821166	5308.587402
1.821251	5384.335449
1.821336	5398.054688
1.821421	5327.893555
1.821506	5487.463379
1.821591	5348.044922
1.821676	5456.529297
1.821761	5393.692871
1.821846	5407.395996
1.821931	5574.109863
1.822016	5536.782715
1.822101	5484.899414
1.822186	5524.068359
1.822272	5508.612305
1.822357	5493.161133
1.822442	5488.633301
1.822527	5320.348145
1.822612	5581.460449
1.822697	5558.730957
1.822783	5536.008789
1.822868	5629.668945
1.822953	5523.311035
1.823038	5598.765137
1.823124	5517.891113
1.823209	5658.740234
1.823294	5686.895996
1.823380	5678.710938
1.823465	5732.282715
1.823550	5676.875488
1.823636	5654.169434
1.823721	5606.054688
1.823806	5637.821289
1.823892	5796.616699
1.823977	5654.145020
1.824063	5704.030762
1.824148	5576.131348
1.824233	5633.268066
1.824319	5519.928223
1.824404	5551.672363
1.824490	5750.182617
1.824575	5781.878418
1.824661	5639.592285
1.824746	5707.533691
1.824832	5768.207031
1.824918	5738.293945
1.825003	5842.406738
1.825089	5707.467773
1.825174	5894.833008
1.825260	5788.891602
1.825346	5751.758789
1.825431	5957.121582
1.825517	5818.653809
1.825603	5683.848633
1.825688	5701.017090
1.825774	5855.619141
1.825860	5807.662598
1.825945	5922.424805
1.826031	5682.874512
1.826117	5931.355469
1.826203	6046.041992
1.826288	5694.574707
1.826374	5830.938477
1.826460	5916.687988
1.826546	6016.855957
1.826632	5857.001465
1.826717	6105.172363
1.826803	5880.378418
1.826889	5933.566895
1.826975	5910.957031
1.827061	5917.218262
1.827147	5952.337402
1.827233	5976.624512
1.827319	6004.509766
1.827405	6104.500977
1.827491	6045.832520
1.827577	6142.179688
1.827663	5935.760742
1.827749	6042.904297
1.827835	5850.979004
1.827921	6030.145996
1.828007	5906.716309
1.828093	5894.959473
1.828179	6088.434082
1.828265	5903.855469
1.828351	6079.269531
1.828438	6089.083984
1.828524	6152.868164
1.828610	6094.313477
1.828696	6161.672363
1.828782	6221.816895
1.828868	6105.745117
1.828955	6237.784180
1.829041	6121.747559
1.829127	6106.382813
1.829213	6259.918457
1.829300	6140.340820
1.829386	6124.979980
1.829472	6278.437988
1.829558	6112.229004
1.829645	6258.458008
1.829731	6207.187012
1.829818	6202.595703
1.829904	6097.516602
1.829990	6175.475098
1.830077	6382.566406
1.830163	6342.077637
1.830250	6412.785156
1.830336	6408.164063
1.830422	6166.907227
1.830509	6323.644531
1.830595	6433.735840
1.830682	6357.440430
1.830768	6205.924316
1.830855	6344.640625
1.830941	6447.493164
1.831028	6177.850098
1.831115	6144.625977
1.831201	6272.521973
1.831288	6386.057617
1.831374	6510.293945
1.831461	6605.861816
1.831547	6436.634766
1.831634	6349.740234
1.831721	6270.027344
1.831807	6483.585449
1.831894	6353.817871
1.831981	6320.617676
1.832068	6484.021484
1.832154	6375.759766
1.832241	6367.584473
1.832328	6602.354980
1.832415	6429.827637
1.832501	6453.791016
1.832588	6667.008301
1.832675	6494.553223
1.832762	6500.645020
1.832849	6449.626953
1.832936	6473.566895
1.833022	6479.658691
1.833109	6553.530762
1.833196	6577.442383
1.833283	6508.620117
1.833370	6646.635742
1.833457	6445.911133
1.833544	6591.021484
1.833631	6518.677246
1.833718	6439.228516
1.833805	6634.149902
1.833892	6618.830566
1.833979	6464.606934
1.834066	6645.184570
1.834153	6644.112793
1.834240	6621.680664
1.834327	6837.740234
1.834414	6644.456543
1.834501	6725.226074
1.834589	6859.335938
1.834676	6612.784180
1.834763	6665.066895
1.834850	6788.452637
1.834937	6862.021973
1.835024	6811.146973
1.835111	6642.995605
1.835199	6673.907715
1.835286	6772.319824
1.835373	6806.753418
1.835461	6585.430664
1.835548	6769.043457
1.835635	6743.095703
1.835722	6546.742188
1.835810	6879.359863
1.835897	6913.741699
1.835984	6816.815430
1.836072	6744.755859
1.836159	6679.814453
1.836246	6916.376465
1.836334	7117.399414
1.836421	6910.600098
1.836509	6866.943848
1.836596	6748.865723
1.836684	6864.729492
1.836771	6881.339355
1.836859	6883.772461
1.836946	6971.219727
1.837034	6842.593750
1.837121	6993.759766
1.837209	6978.469727
1.837296	6743.704102
1.837384	6933.746094
1.837471	6890.161621
1.837559	6825.361328
1.837647	6976.382813
1.837734	6961.109375
1.837822	7016.572266
1.837910	7142.737305
1.837997	7095.624512
1.838085	7052.062012
1.838173	6976.705078
1.838260	6908.439453
1.838348	7034.519043
1.838436	6892.081543
1.838524	6968.674805
1.838611	7168.843750
1.838699	7231.243652
1.838787	7201.835449
1.838875	7052.425293
1.838963	6903.062988
1.839051	6916.064453
1.839138	7119.575684
1.839226	7037.295898
1.839314	7092.591797
1.839402	7126.711914
1.839490	7104.408203
1.839578	7134.989746
1.839666	7130.314941
1.839754	7294.796387
1.839842	7307.714355
1.839930	7081.069336
1.840018	7256.045410
1.840106	7279.528320
1.840194	7165.676270
1.840282	7136.355957
1.840370	7230.247559
1.840458	7105.899414
1.840546	7192.727539
1.840634	7068.424805
1.840722	7127.088379
1.840810	7291.250488
1.840898	7082.590820
1.840987	7239.674316
1.841075	7031.090332
1.841163	7226.795898
1.841251	7134.256348
1.841339	7178.786621
1.841428	7391.939941
1.841516	7232.676270
1.841604	7147.219238
1.841692	7353.250488
1.841781	7288.867188
1.841869	7294.713379
1.841957	7342.676270
1.842046	7264.287598
1.842134	7224.520996
1.842222	7342.634766
1.842311	7127.486816
1.842399	7477.043457
1.842487	7318.046387
1.842576	7474.633789
1.842664	7189.495117
1.842753	7342.547852
1.842841	7166.152832
1.842930	7553.905273
1.843018	7405.557617
1.843107	7400.861816
1.843195	7532.744141
1.843284	7479.009277
1.843372	7379.780273
1.843461	7490.600098
1.843549	7457.895996
1.843638	7694.636719
1.843726	7437.999512
1.843815	7314.370605
1.843904	7512.547363
1.843992	7367.963867
1.844081	7405.236328
1.844170	7439.000977
1.844258	7451.783203
1.844347	7503.002441
1.844436	7491.311035
1.844525	7441.194824
1.844613	7384.108887
1.844702	7463.244141
1.844791	7413.156250
1.844880	7453.856934
1.844968	7480.581543
1.845057	7374.672363
1.845146	7453.744629
1.845235	7393.230469
1.845324	7569.950684
1.845412	7512.924805
1.845501	7727.929199
1.845590	7691.816406
1.845679	7575.532227
1.845768	7598.711426
1.845857	7660.219238
1.845946	7498.696777
1.846035	7570.652344
1.846124	7719.218750
1.846213	7690.112793
1.846302	7608.781738
1.846391	7631.927734
1.846480	7717.727539
1.846569	7643.391602
1.846658	7680.440918
1.846747	7613.093750
1.846836	7580.557129
1.846925	7589.770996
1.847015	7779.827637
1.847104	7646.439453
1.847193	7728.647949
1.847282	7706.546387
1.847371	7701.829590
1.847460	7686.688965
1.847550	7744.516602
1.847639	7649.474121
1.847728	7703.815430
1.847817	7667.847168
1.847907	7722.166992
1.847996	7793.827637
1.848085	7743.977539
1.848175	7812.140625
1.848264	7710.253418
1.848353	7802.685547
1.848442	7825.710938
1.848532	7644.099609
1.848621	7694.884766
1.848711	7905.142578
1.848800	7928.135742
1.848889	7743.158203
1.848979	7842.410645
1.849068	7757.989258
1.849158	7791.383301
1.849247	7651.576172
1.849337	7743.852051
1.849426	7791.082520
1.849516	7924.851563
1.849605	7757.419434
1.849695	7666.183105
1.849785	7692.632324
1.849874	7999.326172
1.849964	7797.395508
1.850053	7927.574219
1.850143	7864.049316
1.850233	7776.340820
1.850322	7868.431152
1.850412	7849.881348
1.850502	7772.584961
1.850591	7874.997070
1.850681	7884.093750
1.850771	7920.822266
1.850861	7719.226563
1.850950	7766.329102
1.851040	7785.794922
1.851130	7939.886719
1.851220	7821.254883
1.851310	7923.525879
1.851399	7887.745605
1.851489	7793.328125
1.851579	8054.223633
1.851669	8083.966309
1.851759	7927.494141
1.851849	7981.380371
1.851939	7955.965820
1.852029	8068.421387
1.852119	7808.671387
1.852208	8210.533203
1.852298	7981.847168
1.852389	7918.563965
1.852479	7958.614746
1.852569	8050.300781
1.852659	8183.269531
1.852749	7978.866211
1.852839	7819.269043
1.852929	8045.118164
1.853019	8078.227539
1.853109	7818.933105
1.853199	7996.521484
1.853289	7957.407227
1.853379	7952.687988
1.853470	8140.481445
1.853560	8070.427734
1.853650	7852.623047
1.853740	8167.475098
1.853830	7887.885254
1.853921	8065.232422
1.854011	7971.205566
1.854101	8193.122070
1.854191	7958.339844
1.854282	8324.360352
1.854372	8274.969727
1.854462	8122.646484
1.854553	8385.531250
1.854643	8161.197754
1.854733	8063.845215
1.854824	7932.229492
1.854914	8325.271484
1.855004	8070.236816
1.855095	8154.631836
1.855185	8040.221191
1.855276	8138.300293
1.855366	8075.320313
1.855457	8169.936035
1.855547	8137.795898
1.855638	8191.277344
1.855728	8111.208984
1.855819	7979.816406
1.855909	8207.859375
1.856000	8237.338867
1.856091	8194.952148
1.856181	8067.051270
1.856272	8130.744141
1.856362	7978.953613
1.856453	8299.101563
1.856544	8116.562012
1.856634	8183.623535
1.856725	8260.916016
1.856816	8334.767578
1.856907	8210.422852
1.856997	8151.026855
1.857088	8248.768555
1.857179	7984.479004
1.857270	8239.284180
1.857360	8203.818359
1.857451	8298.074219
1.857542	8388.886719
1.857633	8281.754883
1.857724	8362.304688
1.857815	8326.846680
1.857905	8223.185547
1.857996	8303.706055
1.858087	8114.841309
1.858178	8277.169922
1.858269	8129.272461
1.858360	8346.073242
1.858451	8327.693359
1.858542	8179.857910
1.858633	8423.795898
1.858724	8354.325195
1.858815	8111.210449
1.858906	8235.877930
1.858997	8326.463867
1.859088	8382.984375
1.859179	8276.141602
1.859270	8121.698730
1.859362	8181.626465
1.859453	8367.385742
1.859544	8134.782715
1.859635	8456.500977
1.859726	8387.145508
1.859817	8528.561523
1.859909	8268.892578
1.860000	8498.631836
1.860091	8473.481445
1.860182	8312.458984
1.860273	8419.808594
1.860365	8235.074219
1.860456	8274.494141
1.860547	8330.874023
1.860639	8244.676758
1.860730	8467.335938
1.860821	8337.033203
1.860913	8396.758789
1.861004	8330.958008
1.861096	8333.008789
1.861187	8260.457031
1.861278	8374.403320
1.861370	8105.253906
1.861461	8398.824219
1.861553	8221.253906
1.861644	8138.613281
1.861736	8303.301758
1.861827	8322.289063
1.861919	8182.098145
1.862010	8367.016602
1.862102	8331.814453
1.862193	8276.314453
1.862285	8261.445313
1.862376	8270.267578
1.862468	8417.804688
1.862560	8416.450195
1.862651	8235.835938
1.862743	8315.672852
1.862835	8266.998047
1.862926	8340.041992
1.863018	8399.541992
1.863110	8340.738281
1.863201	8427.250977
1.863293	8422.516602
1.863385	8441.428711
1.863477	8240.805664
1.863569	8452.219727
1.863660	8386.710938
1.863752	8395.489258
1.863844	8242.253906
1.863936	8618.890625
1.864028	8323.955078
1.864120	8150.563477
1.864212	8304.412109
1.864303	8255.861328
1.864395	8264.648438
1.864487	8408.290039
1.864579	8204.685547
1.864671	8419.065430
1.864763	8495.216797
1.864855	8291.695313
1.864947	8384.685547
1.865039	8265.451172
1.865131	8462.810547
1.865223	8424.411133
1.865315	8379.291016
1.865408	8465.458984
1.865500	8420.346680
1.865592	8334.869141
1.865684	8343.621094
1.865776	8460.012695
1.865868	8428.382813
1.865960	8373.222656
1.866053	8331.529297
1.866145	8353.720703
1.866237	8228.015625
1.866329	8522.422852
1.866421	8430.331055
1.866514	8308.033203
1.866606	8457.849609
1.866698	8406.113281
1.866791	8492.065430
1.866883	8259.042969
1.866975	8496.046875
1.867068	8524.886719
1.867160	8547.005859
1.867252	8414.779297
1.867345	8540.901367
1.867437	8509.340820
1.867530	8212.859375
1.867622	8439.542969
1.867715	8387.898438
1.867807	8534.035156
1.867900	8422.065430
1.867992	8256.518555
1.868085	8466.260742
1.868177	8394.553711
1.868270	8339.616211
1.868362	8395.202148
1.868455	8544.519531
1.868547	8422.630859
1.868640	8277.350586
1.868733	8356.336914
1.868825	8428.605469
1.868918	8387.103516
1.869011	8409.168945
1.869103	8374.373047
1.869196	8336.243164
1.869289	8475.322266
1.869381	8260.020508
1.869474	8365.643555
1.869567	8394.374023
1.869660	8426.435547
1.869752	8421.739258
1.869845	8306.821289
1.869938	8318.843750
1.870031	8357.574219
1.870124	8566.554688
1.870216	8585.204102
1.870309	8293.468750
1.870402	8442.293945
1.870495	8394.227539
1.870588	8496.287109
1.870681	8278.128906
1.870774	8500.223633
1.870867	8438.841797
1.870960	8447.485352
1.871053	8269.470703
1.871146	8358.121094
1.871239	8426.750000
1.871332	8318.786133
1.871425	8390.729492
1.871518	8439.336914
1.871611	8368.050781
1.871704	8566.467773
1.871797	8518.486328
1.871891	8500.474609
1.871984	8332.719727
1.872077	8401.250977
1.872170	8273.485352
1.872263	8425.158203
1.872356	8380.570313
1.872450	8412.472656
1.872543	8417.769531
1.872636	8320.018555
1.872729	8415.061523
1.872823	8277.467773
1.872916	8448.902344
1.873009	8427.612305
1.873103	8296.723633
1.873196	8398.334961
1.873289	8267.493164
1.873383	8259.524414
1.873476	8510.456055
1.873569	8346.471680
1.873663	8358.402344
1.873756	8357.058594
1.873850	8435.324219
1.873943	8450.549805
1.874037	8575.199219
1.874130	8328.475586
1.874224	8426.583984
1.874317	8213.106445
1.874411	8453.699219
1.874504	8319.805664
1.874598	8209.144531
1.874691	8442.996094
1.874785	8309.168945
1.874879	8513.127930
1.874972	8270.079102
1.875066	8222.407227
1.875160	8336.920898
1.875253	8365.362305
1.875347	8436.804688
1.875441	8422.215820
1.875534	8248.872070
1.875628	8373.209961
1.875722	8335.493164
1.875816	8439.941406
1.875909	8352.644531
1.876003	8255.460938
1.876097	8459.000000
1.876191	8351.918945
1.876285	8396.821289
1.876378	8372.351563
1.876472	8262.034180
1.876566	8320.134766
1.876660	8190.053711
1.876754	8310.857422
1.876848	8392.022461
1.876942	8097.016113
1.877036	8432.210938
1.877130	8341.795898
1.877224	8317.369141
1.877318	8309.436523
1.877412	8439.975586
1.877506	8244.134766
1.877600	8542.726563
1.877694	8379.884766
1.877788	8128.136230
1.877882	8252.009766
1.877976	8184.808594
1.878070	8249.355469
1.878165	8195.346680
1.878259	8282.916016
1.878353	8251.959961
1.878447	8323.035156
1.878541	8216.400391
1.878635	8057.160645
1.878730	8207.179688
1.878824	8337.416992
1.878918	8303.192383
1.879012	8137.463867
1.879107	8251.211914
1.879201	8207.156250
1.879295	8172.974121
1.879390	8388.519531
1.879484	8291.898438
1.879578	8303.704102
1.879673	8036.351563
1.879767	8258.346680
1.879862	8204.488281
1.879956	7999.649414
1.880050	8149.337402
1.880145	8213.657227
1.880239	7920.327637
1.880334	8112.602051
1.880428	7996.499512
1.880523	8083.757813
1.880617	8174.266602
1.880712	8186.065430
1.880807	8115.914551
1.880901	7990.071777
1.880996	8034.662109
1.881090	8170.972656
1.881185	8038.629883
1.881280	7929.255371
1.881374	8144.108887
1.881469	8038.026367
1.881564	7902.515625
1.881658	7973.252930
1.881753	8066.875000
1.881848	8029.585449
1.881943	8061.009277
1.882037	8098.964844
1.882132	8064.958008
1.882227	7929.593750
1.882322	7996.976074
1.882416	7858.396973
1.882511	8131.675781
1.882606	8176.117676
1.882701	8073.516113
1.882796	8036.283691
1.882891	7976.198730
1.882986	7886.741211
1.883081	7777.721191
1.883176	8197.614258
1.883271	8075.522461
1.883365	7849.033203
1.883461	7961.979980
1.883555	8153.191895
1.883650	8080.115234
1.883746	7860.293457
1.883841	7852.507324
1.883936	7932.756836
1.884031	7810.862793
1.884126	8102.955566
1.884221	7782.279297
1.884316	7859.229492
1.884411	7743.940430
1.884506	7729.665527
1.884602	7904.291016
1.884697	7733.692383
1.884792	7602.218262
1.884887	7744.226563
1.884982	7837.368164
1.885078	7849.124512
1.885173	7698.193359
1.885268	7749.005859
1.885363	7799.801758
1.885459	7694.479980
1.885554	8011.897949
1.885649	7783.035645
1.885745	7908.554688
1.885840	7588.781738
1.885936	7633.054199
1.886031	7713.050781
1.886126	7624.102539
1.886222	7778.776855
1.886317	7569.692383
1.886413	7620.425293
1.886508	7781.517578
1.886604	7660.170410
1.886699	7733.581055
1.886795	7706.378906
1.886890	7474.796387
1.886986	7632.538086
1.887082	7657.256348
1.887177	7675.481445
1.887273	7538.075684
1.887368	7475.271484
1.887464	7516.204590
1.887560	7767.764160
1.887655	7513.787109
1.887751	7677.797363
1.887847	7420.677246
1.887942	7429.199707
1.888038	7499.241211
1.888134	7468.897949
1.888230	7506.540527
1.888325	7550.643555
1.888421	7513.833984
1.888517	7412.328125
1.888613	7540.531738
1.888709	7516.678711
1.888804	7399.051270
1.888900	7281.461426
1.888996	7555.079590
1.889092	7450.431152
1.889188	7462.160156
1.889284	7480.347656
1.889380	7508.221191
1.889476	7507.013672
1.889572	7408.916016
1.889668	7297.932617
1.889764	7387.161133
1.889860	7353.691895
1.889956	7297.640137
1.890052	7331.964355
1.890148	7282.386719
1.890244	7358.641113
1.890340	7286.495605
1.890436	7191.798340
1.890532	7222.886719
1.890628	6999.270508
1.890725	7265.692383
1.890821	7122.714355
1.890917	7215.019043
1.891013	7204.193359
1.891109	7212.698730
1.891206	7102.029297
1.891302	7155.633301
1.891398	7073.986328
1.891495	7233.814941
1.891591	7194.025879
1.891687	7276.544434
1.891783	7188.494629
1.891880	7193.772949
1.891976	7160.448730
1.892072	7072.459473
1.892169	7084.184570
1.892265	7070.184570
1.892362	7123.696777
1.892458	7202.904785
1.892555	7179.250977
1.892651	7020.653809
1.892748	6894.233398
1.892844	6912.397461
1.892941	7081.498535
1.893037	6964.762207
1.893134	6992.536621
1.893230	6853.381348
1.893327	6974.240234
1.893423	6992.372559
1.893520	6760.238281
1.893616	7102.401855
1.893713	6892.776367
1.893810	6939.771484
1.893906	6896.972168
1.894003	6876.627930
1.894100	6865.905762
1.894197	6909.669434
1.894293	6844.471191
1.894390	6881.816406
1.894487	6726.950684
1.894584	6693.840820
1.894680	6987.374023
1.894777	6582.828125
1.894874	6716.221680
1.894971	6775.955566
1.895068	6790.866699
1.895165	6684.184570
1.895262	6891.056641
1.895358	6611.663574
1.895455	6757.715820
1.895552	6830.174805
1.895649	6650.036621
1.895746	6751.259277
1.895843	6778.937988
1.895940	6701.153809
1.896037	6597.833496
1.896134	6730.943848
1.896231	6566.964844
1.896328	6617.005371
1.896425	6593.589844
1.896523	6780.887207
1.896620	6693.612793
1.896717	6497.855957
1.896814	6490.428711
1.896911	6671.240723
1.897008	6635.078613
1.897105	6496.865723
1.897203	6674.400391
1.897300	6609.558594
1.897397	6503.294922
1.897494	6556.434570
1.897591	6584.062012
1.897689	6363.144531
1.897786	6546.899902
1.897883	6453.472168
1.897981	6398.292480
1.898078	6438.659180
1.898175	6443.991211
1.898273	6376.105957
1.898370	6390.994141
1.898468	6488.615723
1.898565	6344.394043
1.898662	6352.916992
1.898760	6246.931641
1.898857	6570.307617
1.898955	6467.500488
1.899052	6421.951660
1.899150	6179.339844
1.899247	6299.115723
1.899345	6399.787598
1.899442	6217.661133
1.899540	6327.842773
1.899638	6209.308594
1.899735	6287.700195
1.899833	6137.459473
1.899930	6301.550293
1.900028	6132.311035
1.900126	6185.274902
1.900223	6111.299805
1.900321	6221.355957
1.900419	6125.193848
1.900517	6219.354492
1.900614	6082.000488
1.900712	6239.547363
1.900810	5946.904297
1.900908	6094.913086
1.901006	6138.298340
1.901103	6428.809570
1.901201	6250.370117
1.901299	6157.508789
1.901397	6074.177734
1.901495	5905.380371
1.901593	6088.053223
1.901691	5966.788574
1.901789	6171.546875
1.901887	6021.828125
1.901984	6080.973145
1.902083	5981.930176
1.902181	5955.665039
1.902279	6071.713867
1.902377	6118.165039
1.902475	5892.726074
1.902573	5973.959473
1.902671	5935.074707
1.902769	5877.243164
1.902867	5898.413086
1.902965	6045.927246
1.903063	5943.889648
1.903161	5860.831055
1.903260	5866.202637
1.903358	5893.669922
1.903456	5987.409180
1.903554	6024.314941
1.903653	5638.406738
1.903751	5792.081543
1.903849	5743.836426
1.903947	5843.831055
1.904045	5871.270020
1.904144	5785.202148
1.904242	5667.640625
1.904341	5877.891602
1.904439	5867.492188
1.904537	5680.658691
1.904636	5846.703613
1.904734	5757.572754
1.904832	5655.873535
1.904931	5510.125977
1.905029	5619.424316
1.905128	5530.386230
1.905226	5686.852539
1.905325	5698.524414
1.905423	5464.794922
1.905522	5599.176758
1.905620	5456.746582
1.905719	5597.375488
1.905818	5524.160645
1.905916	5510.697754
1.906015	5560.100098
1.906114	5549.777832
1.906212	5508.038086
1.906311	5488.302246
1.906410	5531.394043
1.906508	5423.725586
1.906607	5422.853027
1.906706	5648.026855
1.906804	5370.883301
1.906903	5423.374023
1.907002	5406.811523
1.907101	5597.330078
1.907200	5373.701172
1.907298	5338.334961
1.907397	5397.060059
1.907496	5490.256836
1.907595	5354.568359
1.907694	5444.606934
1.907793	5418.659180
1.907892	5424.054199
1.907991	5423.181152
1.908090	5243.757813
1.908188	5264.837891
1.908288	5370.460449
1.908386	5141.036133
1.908486	5356.210449
1.908584	5336.568848
1.908684	5295.026855
1.908783	5181.533203
1.908882	5249.524902
1.908981	5157.969727
1.909080	5254.090332
1.909179	5190.706055
1.909278	5092.951660
1.909377	5195.287598
1.909477	5260.085449
1.909576	5109.242676
1.909675	5208.401855
1.909774	5141.961426
1.909873	5097.406250
1.909973	5159.043945
1.910072	5198.805176
1.910171	5026.263672
1.910271	5165.917969
1.910370	5105.789551
1.910469	5126.810547
1.910568	5144.705078
1.910668	5146.996094
1.910767	5177.356934
1.910867	5036.196289
1.910966	5107.097168
1.911065	4937.936523
1.911165	4912.206543
1.911264	4824.157227
1.911364	4997.870117
1.911463	5118.565430
1.911563	5002.491211
1.911662	4873.996582
1.911762	5028.905762
1.911862	4894.221680
1.911961	5042.851563
1.912061	4929.994629
1.912160	5019.445313
1.912260	4975.078613
1.912359	4949.390625
1.912459	4929.931641
1.912559	4873.160645
1.912659	4760.439453
1.912758	4908.898438
1.912858	4839.724609
1.912958	4882.455566
1.913057	4863.025391
1.913157	4874.669922
1.913257	4799.333008
1.913357	4817.195313
1.913457	4835.052246
1.913556	4747.337891
1.913656	4758.991211
1.913756	4773.744141
1.913856	4782.286133
1.913956	4741.179199
1.914056	4610.116211
1.914156	4854.421875
1.914256	4788.511719
1.914356	4849.758301
1.914456	4762.166992
1.914556	4643.605469
1.914656	4636.659180
1.914756	4589.429688
1.914856	4777.691895
1.914956	4693.280273
1.915056	4611.992676
1.915156	4744.416016
1.915256	4520.712891
1.915356	4671.683594
1.915456	4522.353027
1.915557	4633.040527
1.915657	4610.634277
1.915757	4554.202148
1.915857	4726.698730
1.915957	4676.451172
1.916057	4647.867188
1.916158	4538.902344
1.916258	4655.644531
1.916358	4559.077148
1.916458	4598.518555
1.916559	4619.407715
1.916659	4569.233398
1.916759	4463.474609
1.916860	4521.436035
1.916960	4545.411133
1.917061	4455.144531
1.917161	4540.860840
1.917262	4515.438477
1.917362	4490.023926
1.917462	4526.326172
1.917563	4491.663086
1.917663	4531.037598
1.917764	4437.790039
1.917864	4541.912598
1.917965	4337.706543
1.918066	4509.625488
1.918166	4487.325684
1.918267	4421.892578
1.918367	4473.557129
1.918468	4386.583496
1.918569	4435.156738
1.918669	4440.601563
1.918770	4482.992188
1.918871	4454.563965
1.918971	4453.846680
1.919072	4323.875000
1.919173	4267.792480
1.919273	4319.405762
1.919374	4300.254395
1.919475	4271.882324
1.919576	4286.569336
1.919677	4375.040527
1.919777	4242.152832
1.919878	4367.484375
1.919979	4495.848633
1.920080	4301.554688
1.920181	4288.573730
1.920282	4294.025879
1.920383	4305.618652
1.920484	4326.419434
1.920585	4224.410156
1.920686	4269.773438
1.920787	4345.812988
1.920888	4262.261230
1.920989	4344.413086
1.921090	4230.212402
1.921191	4297.007324
1.921292	4250.316406
1.921393	4056.466797
1.921494	4279.603516
1.921595	4251.328125
1.921696	4259.837402
1.921798	4228.510254
1.921899	4191.065430
1.922000	4230.211426
1.922101	4097.835449
1.922202	4161.480957
1.922304	4105.700684
1.922405	4236.669922
1.922506	4211.502441
1.922607	4094.536621
1.922709	4099.996582
1.922810	4154.401855
1.922911	4193.496094
1.923013	4195.878906
1.923114	4201.318359
1.923216	4203.698730
1.923317	3961.539063
1.923418	4101.488281
1.923520	4021.377930
1.923621	4121.554199
1.923723	4038.411133
1.923824	4016.380615
1.923926	3936.335205
1.924027	3972.340820
1.924129	3971.700928
1.924230	4117.572266
1.924332	3970.421387
1.924433	4003.346436
1.924535	3947.786377
1.924637	4133.221680
1.924738	3998.362061
1.924840	4006.865967
1.924942	4219.641602
1.925043	4069.591064
1.925145	3819.008545
1.925247	3961.621094
1.925348	3960.982910
1.925450	3999.947998
1.925552	3920.109619
1.925654	3971.250488
1.925756	3970.610596
1.925857	3933.437500
1.925959	3954.111572
1.926061	3901.735352
1.926163	3888.934814
1.926265	4010.008057
1.926367	3884.639648
1.926468	3908.345947
1.926570	3725.254883
1.926672	3952.694580
1.926774	3952.057861
1.926876	3772.087402
1.926978	3886.963867
1.927080	3877.221924
1.927182	4007.234863
1.927284	3888.123047
1.927386	3939.127197
1.927488	3877.760254
1.927591	3746.581787
1.927693	3943.294678
1.927795	3948.729492
1.927897	3860.088135
1.927999	3883.739502
1.928101	3816.372559
1.928203	3879.454834
1.928306	3845.469727
1.928408	3693.239258
1.928510	3792.691162
1.928612	3758.736328
1.928715	3770.253662
1.928817	3915.098633
1.928919	3781.157715
1.929022	3801.753418
1.929124	3825.371094
1.929226	3767.216553
1.929329	3696.969727
1.929431	3829.576416
1.929533	3828.959229
1.929636	3822.289551
1.929738	3752.078369
1.929841	3712.143799
1.929943	3781.118164
1.930046	3647.434814
1.930148	3779.899414
1.930251	3600.907715
1.930353	3769.612305
1.930456	3750.869873
1.930558	3593.122803
1.930661	3553.264404
1.930764	3676.552490
1.930866	3645.754883
1.930969	3853.548828
1.931072	3614.384277
1.931174	3601.725586
1.931277	3643.405029
1.931380	3588.492188
1.931482	3771.986816
1.931585	3695.951172
1.931688	3607.873535
1.931791	3664.598389
1.931893	3597.663574
1.931996	3669.447510
1.932099	3686.943848
1.932202	3556.739502
1.932305	3646.577148
1.932407	3576.685547
1.932510	3747.834473
1.932613	3644.813965
1.932716	3535.803223
1.932819	3559.323242
1.932922	3552.727783
1.933025	3555.165527
1.933128	3476.337158
1.933231	3578.093994
1.933334	3655.747070
1.933437	3585.965332
1.933540	3546.284912
1.933643	3545.713135
1.933746	3563.182861
1.933849	3631.756104
1.933953	3562.033936
1.934056	3498.345215
1.934159	3560.885498
1.934262	3503.226074
1.934365	3544.717285
1.934468	3508.103516
1.934572	3474.504639
1.934675	3527.990234
1.934778	3332.287354
1.934881	3553.866699
1.934985	3481.267578
1.935088	3570.724365
1.935191	3402.141602
1.935295	3548.575439
1.935398	3482.021729
1.935501	3550.429688
1.935605	3495.889893
1.935708	3570.268799
1.935812	3428.823486
1.935915	3449.247803
1.936018	3526.594238
1.936122	3502.059326
1.936225	3402.649902
1.936329	3461.997314
1.936432	3506.354004
1.936536	3398.010254
1.936639	3406.442139
1.936743	3528.600830
1.936847	3480.153320
1.936950	3617.219971
1.937054	3452.108154
1.937157	3499.406494
1.937261	3418.099609
1.937365	3399.608398
1.937468	3452.871094
1.937572	3550.951660
1.937676	3592.218506
1.937779	3439.248535
1.937883	3480.519775
1.937987	3384.371338
1.938091	3524.196045
1.938195	3338.487793
1.938298	3493.202881
1.938402	3426.965820
1.938506	3441.336426
1.938610	3351.255371
1.938714	3404.421631
1.938818	3478.453369
1.938922	3483.857910
1.939026	3358.040283
1.939130	3354.516846
1.939234	3345.031738
1.939337	3311.703125
1.939442	3335.011719
1.939546	3328.513916
1.939650	3438.214355
1.939754	3521.069092
1.939858	3446.040283
1.939962	3323.388672
1.940066	3400.266602
1.940170	3432.464844
1.940274	3396.192871
1.940378	3362.908691
1.940482	3401.048340
1.940587	3465.950928
1.940691	3394.001709
1.940795	3336.946045
1.940899	3315.592285
1.941004	3413.171143
1.941108	3359.112549
1.941212	3257.516113
1.941316	3319.396484
1.941421	3393.141602
1.941525	3279.705566
1.941629	3356.403320
1.941734	3358.831543
1.941838	3408.767822
1.941943	3431.968506
1.942047	3395.794434
1.942152	3335.889160
1.942256	3305.676758
1.942360	3299.209473
1.942465	3301.643555
1.942569	3354.498047
1.942674	3327.267334
1.942778	3329.695557
1.942883	3255.045166
1.942988	3224.879395
1.943092	3396.245605
1.943197	3318.657227
1.943301	3329.972168
1.943406	3225.760254
1.943511	3391.092041
1.943616	3242.486084
1.943720	3292.294678
1.943825	3241.439453
1.943930	3347.467041
1.944034	3329.171143
1.944139	3322.716309
1.944244	3325.138184
1.944349	3342.348633
1.944453	3223.514893
1.944558	3240.735840
1.944663	3237.256348
1.944768	3189.439209
1.944873	3239.166748
1.944978	3401.167236
1.945083	3341.528320
1.945188	3160.794189
1.945293	3225.261719
1.945397	3209.975830
1.945503	3236.031006
1.945608	3270.933838
1.945712	3214.324707
1.945818	3284.633545
1.945922	3346.067627
1.946028	3259.971436
1.946133	3226.998291
1.946238	3143.898438
1.946343	3231.854004
1.946448	3340.419189
1.946553	3216.071533
1.946658	3306.919922
1.946764	3306.385986
1.946869	3046.569580
1.946974	3364.236816
1.947079	3160.458008
1.947184	3157.002930
1.947290	3265.439209
1.947395	3076.495117
1.947500	3258.497803
1.947606	3202.053467
1.947711	3183.880859
1.947816	3192.193115
1.947922	3294.635010
1.948027	3194.103516
1.948133	3143.595947
1.948238	3219.533936
1.948343	3210.194824
1.948449	3203.797852
1.948554	3273.811523
1.948660	3138.120361
1.948765	3225.748779
1.948871	3131.232178
1.948976	3174.779785
1.949082	3186.012695
1.949187	3200.177979
1.949293	3211.403076
1.949399	3222.624268
1.949504	3201.562256
1.949610	3145.298340
1.949716	3309.070313
1.949821	3097.352783
1.949927	3052.863037
1.950033	3181.384766
1.950138	2990.311768
1.950244	3162.770020
1.950350	3097.782959
1.950456	3152.957520
1.950562	3140.729004
1.950667	3011.332031
1.950773	3148.500977
1.950879	3016.216064
1.950985	3006.945068
1.951091	3155.757813
1.951197	3210.860107
1.951303	3137.179443
1.951409	3054.744629
1.951514	2992.815186
1.951620	3044.982666
1.951726	3170.247803
1.951832	3160.963379
1.951939	3122.445313
1.952044	3218.405518
1.952150	3141.895508
1.952257	3208.598877
1.952363	3193.471924
1.952469	3149.136719
1.952575	3046.399658
1.952681	3007.943359
1.952787	3042.495605
1.952893	3112.069336
1.953000	3178.701660
1.953106	3093.553223
1.953212	3084.299316
1.953318	3066.295898
1.953424	3094.970947
1.953531	3167.384766
1.953637	3099.802979
1.953743	3119.711426
1.953850	3224.152588
1.953956	3159.508545
1.954062	3100.714111
1.954169	3103.126709
1.954275	3093.885498
1.954382	3102.123779
1.954488	3165.693604
1.954594	2984.647217
1.954701	3036.569824
1.954807	3105.940918
1.954914	3137.453613
1.955020	3064.197510
1.955127	3153.896729
1.955234	3007.935547
1.955340	3088.888916
1.955447	3257.058838
1.955553	3073.352539
1.955660	3093.205811
1.955767	3052.012451
1.955873	3005.019775
1.955980	3138.197998
1.956087	3097.017090
1.956193	3084.897217
1.956300	3069.876953
1.956407	3060.669189
1.956514	3057.270996
1.956620	3146.767334
1.956727	3154.966064
1.956834	3171.867920
1.956941	3084.309814
1.957048	3075.108154
1.957154	3118.119629
1.957261	2990.010742
1.957368	3067.817627
1.957475	3081.817627
1.957582	3145.090820
1.957689	3066.330078
1.957796	3089.016357
1.957903	3059.543945
1.958010	3001.112793
1.958117	3012.212891
1.958224	3162.312256
1.958331	3057.565918
1.958438	3080.230957
1.958545	3068.155029
1.958652	3111.069336
1.958759	3139.501709
1.958867	3005.912354
1.958974	3213.694580
1.959081	3045.430420
1.959188	3123.013184
1.959295	3122.508301
1.959403	3075.751465
1.959510	3164.852539
1.959617	3181.679688
1.959724	3172.497070
1.959832	2995.762695
1.959939	3093.484131
1.960046	3098.759766
1.960154	3083.821289
1.960261	3042.904297
1.960368	3175.193115
1.960476	3142.932617
1.960583	3122.225098
1.960690	3147.686523
1.960798	3112.561279
1.960905	3060.142090
1.961013	3062.531006
1.961120	3050.502441
1.961228	3176.852539
1.961336	3023.574707
1.961443	3086.486816
1.961551	3080.224854
1.961658	3076.845703
1.961766	3076.347900
1.961874	3070.090332
1.961981	3107.027832
1.962089	3023.031738
1.962197	3048.450439
1.962304	3134.301514
1.962412	3096.384766
1.962520	3067.111572
1.962627	3141.410889
1.962735	3074.748047
1.962843	3160.525391
1.962951	3036.373779
1.963058	3061.756592
1.963166	3179.112549
1.963274	3032.026367
1.963382	3017.168213
1.963490	3065.521484
1.963598	3047.790283
1.963706	3070.273926
1.963814	3107.108398
1.963922	3066.409180
1.964030	3129.068604
1.964138	3056.806152
1.964246	3039.092773
1.964354	3044.339844
1.964462	2997.945557
1.964570	3006.065674
1.964678	2951.088623
1.964786	3088.249023
1.964894	3053.345215
1.965002	3015.586182
1.965110	3000.768066
1.965219	3074.787842
1.965327	2974.010498
1.965435	2999.311279
1.965543	3033.196289
1.965651	3009.795410
1.965760	3126.702881
1.965868	3071.803223
1.965976	3034.095459
1.966084	3133.770508
1.966193	2973.023438
1.966301	3035.483398
1.966410	3072.178711
1.966518	3051.661133
1.966626	3068.324463
1.966735	2987.772705
1.966843	3078.765869
1.966952	3018.245605
1.967060	2966.317871
1.967169	2997.267578
1.967277	2982.498535
1.967386	3016.291748
1.967494	3032.938477
1.967603	3029.592285
1.967711	3034.811523
1.967820	3008.629883
1.967928	3010.996826
1.968037	3110.384033
1.968146	2998.609619
1.968254	2932.513428
1.968363	3031.864746
1.968472	3196.773438
1.968580	3062.246826
1.968689	3147.274658
1.968798	3009.949219
1.968907	3112.057129
1.969015	3020.372314
1.969124	3054.070557
1.969233	3025.091064
1.969342	3044.537354
1.969451	3029.806641
1.969560	3072.022461
1.969669	3045.905273
1.969777	2928.718506
1.969886	3093.295898
1.969995	3018.818359
1.970104	2969.968018
1.970213	2852.869141
1.970322	3114.043701
1.970431	2945.777832
1.970540	3036.275146
1.970649	2956.193604
1.970758	3038.133789
1.970868	2980.810303
1.970977	3071.243164
1.971086	3025.295166
1.971195	3033.325684
1.971304	3069.750977
1.971413	3091.967773
1.971522	3057.401367
1.971632	3045.552490
1.971741	3098.979248
1.971850	3098.477295
1.971959	3018.540039
1.972068	3046.416260
1.972178	2986.365479
1.972287	3019.908936
1.972396	3067.616943
1.972506	3106.805420
1.972615	3046.783447
1.972724	3034.954834
1.972834	3079.795898
1.972943	3028.305908
1.973053	3064.636230
1.973162	2967.854248
1.973272	3038.159912
1.973381	3077.301758
1.973491	2949.428467
1.973600	3081.964844
1.973710	3016.383789
1.973819	3061.161865
1.973929	2970.146973
1.974039	2904.615967
1.974148	2994.634766
1.974258	2994.149414
1.974367	3058.682373
1.974477	3216.466309
1.974587	3006.823730
1.974697	3017.638428
1.974806	2895.672363
1.974916	3011.011230
1.975026	2993.578369
1.975135	3010.035400
1.975245	3026.486816
1.975355	2896.149414
1.975465	3019.861084
1.975575	3041.946533
1.975685	3078.131348
1.975794	3004.288330
1.975904	3091.236084
1.976014	2994.854492
1.976124	2988.729980
1.976234	2999.521729
1.976344	3027.221924
1.976454	3012.640381
1.976564	2995.245605
1.976674	3129.989014
1.976784	3016.809082
1.976894	3120.525146
1.977004	2993.303711
1.977114	3074.466309
1.977224	3076.782959
1.977335	2960.888184
1.977445	3134.880859
1.977555	3064.032227
1.977665	3041.030029
1.977775	3138.981689
1.977885	3020.358154
1.977996	3042.362793
1.978106	2968.774658
1.978216	3016.078369
1.978327	3077.418701
1.978437	3003.860352
1.978547	2997.754395
1.978658	3022.549805
1.978768	2985.547607
1.978878	2965.406494
1.978989	2970.541016
1.979099	3127.264648
1.979210	2958.350342
1.979320	3134.669434
1.979430	3005.090820
1.979541	3111.209229
1.979651	3119.119629
1.979762	3056.914551
1.979872	3087.263428
1.979983	3025.083496
1.980094	3004.970703
1.980204	3043.720947
1.980315	3085.260742
1.980425	3109.976318
1.980536	2972.207031
1.980647	3058.551758
1.980757	2845.223877
1.980868	2959.560791
1.980979	3057.063721
1.981090	3140.539307
1.981200	2966.516602
1.981311	3086.355713
1.981422	3038.294189
1.981533	3068.570801
1.981644	2925.437012
1.981754	2905.388184
1.981865	3025.139404
1.981976	3077.761719
1.982087	3035.337646
1.982198	3012.489014
1.982309	3118.174805
1.982420	3042.241211
1.982531	3027.781982
1.982642	3052.424805
1.982753	3026.799316
1.982864	3107.270264
1.982975	2969.990234
1.983086	2952.762939
1.983197	2982.978516
1.983308	2962.964600
1.983419	3035.011475
1.983530	2964.791992
1.983642	3028.449219
1.983753	2938.736084
1.983864	3019.103271
1.983975	2957.293213
1.984086	3009.762939
1.984198	3051.069824
1.984309	3011.571777
1.984420	3100.217773
1.984532	2968.819092
1.984643	3065.796631
1.984754	3151.606201
1.984865	3056.450439
1.984977	2922.360840
1.985088	2938.582764
1.985200	3093.914551
1.985311	3029.429688
1.985422	3045.626465
1.985534	3120.217285
1.985645	3072.442383
1.985757	3077.503662
1.985868	3013.073486
1.985980	3123.750000
1.986091	3106.570557
1.986203	3119.957520
1.986315	2972.228271
1.986426	3121.721680
1.986538	3054.569580
1.986650	2992.992188
1.986761	3161.841064
1.986873	3033.653320
1.986985	2980.434082
1.987096	2979.950195
1.987208	3098.755859
1.987320	3009.493408
1.987432	3139.348633
1.987543	3069.518311
1.987655	3093.971191
1.987767	3065.749512
1.987879	2962.707031
1.987991	3114.632080
1.988103	3047.632568
1.988214	3030.516846
1.988326	3121.423828
1.988438	3032.301758
1.988550	3073.340820
1.988662	2995.328369
1.988774	3100.021240
1.988886	3044.169189
1.988998	3002.169922
1.989110	3090.211182
1.989222	3081.410889
1.989334	3150.051270
1.989447	3041.697510
1.989559	3137.968994
1.989671	3079.409180
1.989783	3125.894043
1.989895	2965.110107
1.990007	2961.865479
1.990119	3135.420654
1.990232	3063.098389
1.990344	3090.216553
1.990456	3001.358154
1.990568	2981.545654
1.990681	3116.312988
1.990793	3093.728271
1.990905	3038.038574
1.991018	3092.722900
1.991130	2998.433105
1.991242	3033.800049
1.991355	3107.760742
1.991467	3112.770020
1.991580	3090.210938
1.991692	3037.340820
1.991805	3125.031494
1.991917	3063.906738
1.992030	2933.930176
1.992142	2980.278564
1.992255	3054.151367
1.992367	3086.697021
1.992480	3053.158447
1.992592	3025.135986
1.992705	3148.492432
1.992818	3065.428711
1.992930	2985.143066
1.993043	2976.405518
1.993156	3022.678223
1.993269	3041.436523
1.993381	3010.697754
1.993494	2935.983887
1.993607	3048.199219
1.993720	3075.185303
1.993832	3115.900879
1.993945	3013.745850
1.994058	3018.749512
1.994171	3048.468750
1.994284	3100.145508
1.994397	2910.203857
1.994510	3118.352783
1.994623	3013.551514
1.994736	2958.178955
1.994848	3012.571777
1.994962	3066.946777
1.995075	2992.392578
1.995188	3033.041260
1.995301	3084.644287
1.995414	2999.157227
1.995527	3020.597656
1.995640	3044.771484
1.995753	3068.937500
1.995866	3005.425781
1.995979	2933.717041
1.996092	2998.970947
1.996206	3064.203369
1.996319	2962.402832
1.996432	3079.631348
1.996545	2997.020264
1.996659	3100.521973
1.996772	3042.559326
1.996885	2984.615479
1.996999	2997.806152
1.997112	2989.114014
1.997225	3043.314453
1.997339	3034.617920
1.997452	3124.327881
1.997565	3030.897461
1.997679	3003.078857
1.997792	3018.983154
1.997906	3002.101807
1.998019	3072.625244
1.998133	2932.855713
1.998246	2989.715576
1.998360	3082.045410
1.998473	3035.143311
1.998587	3021.004395
1.998700	2955.027588
1.998814	3041.846436
1.998928	3024.985352
1.999041	3046.311035
1.999155	3089.443848
1.999269	3091.667480
1.999382	3031.194580
1.999496	3107.013916
1.999610	2989.333008
1.999724	2980.672852
1.999838	3067.359619
1.999951	3077.755127
2.000065	2954.708740
2.000179	3101.258545
2.000293	3059.918457
2.000407	3032.201416
2.000521	3064.365479
2.000635	3033.935547
2.000748	3038.882813
2.000862	3041.108398
2.000976	3070.529785
2.001091	3002.048828
2.001204	3058.655029
2.001318	2998.353271
2.001432	3054.941406
2.001547	3070.749023
2.001661	2953.416504
2.001775	2985.534912
2.001889	3036.655762
2.002003	3101.338379
2.002117	3084.541748
2.002231	3010.739258
2.002346	2901.673828
2.002460	3058.609863
2.002574	2976.707031
2.002688	2992.500488
2.002802	3100.517822
2.002917	2980.677490
2.003031	3053.408691
2.003145	3112.560059
2.003260	3079.522949
2.003374	3024.813232
2.003489	2986.381104
2.003603	3015.699707
2.003717	3031.462891
2.003832	2998.465576
2.003946	3068.390381
2.004061	2946.041504
2.004175	3013.244629
2.004290	3007.340088
2.004404	2901.299316
2.004519	3074.010498
2.004633	2981.520752
2.004748	2970.214844
2.004862	2988.663574
2.004977	2993.585205
2.005092	2941.725586
2.005206	3022.346924
2.005321	3021.854492
2.005436	3202.427734
2.005550	2988.445557
2.005665	3020.377930
2.005780	3027.989258
2.005895	2927.569580
2.006010	3081.008057
2.006124	2994.111572
2.006239	3001.721924
2.006354	3030.921143
2.006469	2949.471924
2.006584	3100.083496
2.006699	3115.763916
2.006814	3104.467529
2.006928	3009.575439
2.007043	3003.692383
2.007159	3013.986328
2.007273	2981.149902
2.007388	2880.949219
2.007504	3012.512939
2.007618	3063.210205
2.007734	3008.837402
2.007849	2903.310791
2.007964	2897.451904
2.008079	3004.674072
2.008194	2923.426758
2.008309	3009.077637
2.008425	3038.188721
2.008540	3021.549805
2.008655	2978.014648
2.008770	2980.218750
2.008885	3033.518799
2.009001	2930.847900
2.009116	2962.631104
2.009231	2919.140625
2.009346	2999.290771
2.009462	3047.169434
2.009577	3060.105957
2.009693	3051.548340
2.009808	3000.020996
2.009923	3069.350830
2.010039	2923.865479
2.010154	2987.815918
2.010270	2933.648193
2.010386	3032.462646
2.010501	2932.691406
2.010617	2950.992188
2.010732	3036.343994
2.010848	2920.529541
2.010963	3005.858398
2.011079	3072.392334
2.011194	2881.573486
2.011310	2937.385498
2.011426	2928.867432
2.011541	2984.653564
2.011657	2941.306152
2.011773	3031.890137
2.011889	2945.702393
2.012004	2950.576904
2.012120	2931.356445
2.012236	3043.295410
2.012352	3002.656738
2.012468	3077.087158
2.012583	3025.754639
2.012699	3001.187500
2.012815	2952.558350
2.012931	2919.988770
2.013047	3034.474854
2.013163	3004.575684
2.013279	2854.415771
2.013395	2845.933350
2.013511	2880.202393
2.013627	2941.173828
2.013743	2895.288086
2.013859	2950.895996
2.013975	3046.536621
2.014091	3064.726807
2.014208	2842.684326
2.014324	2922.282959
2.014440	2977.840820
2.014556	2993.362061
2.014672	2928.854736
2.014788	2952.379883
2.014905	2943.898438
2.015021	2906.092041
2.015137	2838.975098
2.015254	2870.494873
2.015370	2949.971436
2.015486	2965.476318
2.015603	3007.615723
2.015719	2943.200195
2.015835	3009.297119
2.015952	2968.865967
2.016068	2861.892334
2.016185	2954.587646
2.016301	2943.459961
2.016418	2956.284180
2.016534	2985.066895
2.016651	2934.038574
2.016767	2904.303711
2.016884	2911.807129
2.017000	2810.299072
2.017117	2937.439453
2.017234	2923.670410
2.017350	2904.590820
2.017467	2973.198975
2.017583	2877.076660
2.017700	2863.326172
2.017817	2977.054199
2.017934	2965.947021
2.018050	2888.472168
2.018167	2933.125244
2.018284	3038.805420
2.018401	2977.277588
2.018517	2825.563965
2.018634	2978.958008
2.018751	2951.948975
2.018868	2906.385986
2.018985	2958.938965
2.019102	2937.248047
2.019219	2867.854980
2.019336	2954.839111
2.019453	2845.720947
2.019570	2906.187988
2.019687	2754.732666
2.019804	2849.623291
2.019921	2918.003418
2.020038	2885.757080
2.020155	2882.638428
2.020272	2969.505859
2.020390	2939.912842
2.020507	2931.495117
2.020624	2915.144287
2.020741	2949.051514
2.020858	2856.013672
2.020976	2858.191162
2.021093	2952.893311
2.021210	2862.543457
2.021327	2880.574707
2.021445	2927.665283
2.021562	2940.396240
2.021679	2929.350098
2.021797	2878.692139
2.021914	2960.079346
2.022031	2909.433105
2.022149	2858.802979
2.022266	2900.564209
2.022384	2797.175293
2.022501	2960.299561
2.022619	2896.504150
2.022736	2872.292725
2.022854	2863.911865
2.022971	2881.900635
2.023089	2852.430664
2.023206	2844.056885
2.023324	2912.112305
2.023442	2906.366211
2.023559	2937.505615
2.023677	2792.149658
2.023795	2926.010498
2.023912	2957.131104
2.024030	2764.452393
2.024148	2821.912598
2.024266	2900.409912
2.024384	2902.567139
2.024501	2928.403320
2.024619	2827.959473
2.024737	2919.555176
2.024855	2869.111328
2.024973	2947.523438
2.025091	2770.902344
2.025208	2828.276367
2.025326	2943.449463
2.025445	2837.862061
2.025563	2900.451172
2.025681	2773.890869
2.025798	2823.338135
2.025917	2841.257813
2.026035	2722.645508
2.026153	2811.452637
2.026271	2816.241943
2.026389	2857.768799
2.026507	2880.915283
2.026625	2956.521484
2.026743	2887.841553
2.026861	2803.449219
2.026980	2821.345215
2.027098	2902.154297
2.027216	2864.982666
2.027334	2898.583984
2.027453	2848.323242
2.027571	2952.654053
2.027689	2860.488525
2.027808	2773.591309
2.027926	2859.552490
2.028044	2798.865967
2.028163	2897.883545
2.028281	2756.072266
2.028400	2860.298340
2.028518	2765.636230
2.028637	2767.799805
2.028755	2861.509766
2.028874	2766.894043
2.028992	2902.409912
2.029111	2802.589355
2.029229	2789.061035
2.029348	2830.420410
2.029467	2793.374268
2.029585	2858.233154
2.029704	2823.806396
2.029823	2844.238525
2.029941	2762.820557
2.030060	2759.757324
2.030179	2798.463379
2.030298	2764.074219
2.030416	2852.349854
2.030535	2896.239502
2.030654	2765.325439
2.030773	2827.473633
2.030892	2696.613525
2.031011	2771.790039
2.031129	2672.266846
2.031248	2734.389160
2.031367	2822.553467
2.031486	2921.112061
2.031605	2821.629150
2.031724	2789.907715
2.031843	2737.360107
2.031962	2710.870850
2.032081	2765.104004
2.032200	2722.999268
2.032319	2738.170166
2.032439	2862.636719
2.032557	2789.312744
2.032677	2765.442139
2.032796	2759.786865
2.032915	2889.369385
2.033034	2782.285156
2.033154	2706.434082
2.033273	2750.180664
2.033392	2754.928223
2.033511	2699.907227
2.033631	2792.997803
2.033750	2784.747070
2.033869	2768.707031
2.033989	2589.070068
2.034108	2718.467773
2.034227	2754.366455
2.034347	2735.746094
2.034466	2678.204346
2.034586	2714.091797
2.034705	2747.373047
2.034825	2697.639160
2.034944	2798.341797
2.035064	2722.685303
2.035183	2644.460938
2.035303	2745.122803
2.035423	2695.429443
2.035542	2661.300293
2.035662	2702.318604
2.035781	2748.504639
2.035901	2758.414307
2.036021	2695.811035
2.036140	2643.584717
2.036260	2630.207520
2.036380	2754.017822
2.036500	2732.862793
2.036619	2711.714844
2.036739	2708.683105
2.036859	2677.199219
2.036979	2692.277832
2.037099	2686.664795
2.037219	2675.882568
2.037339	2621.159668
2.037459	2713.773438
2.037578	2666.814453
2.037699	2640.540039
2.037818	2668.523193
2.037939	2737.822510
2.038059	2600.504883
2.038178	2584.586426
2.038299	2708.078613
2.038419	2637.943359
2.038539	2748.482178
2.038659	2624.176514
2.038779	2734.681396
2.038899	2757.447998
2.039020	2615.148438
2.039140	2655.977539
2.039260	2761.248047
2.039380	2807.194824
2.039500	2680.444336
2.039621	2607.850586
2.039741	2628.034912
2.039861	2666.245117
2.039982	2694.139893
2.040102	2688.547607
2.040222	2664.933105
2.040343	2677.367920
2.040463	2730.981934
2.040584	2609.577148
2.040704	2712.074219
2.040825	2732.210693
2.040945	2618.582031
2.041066	2672.161377
2.041186	2574.008301
2.041307	2630.148438
2.041427	2673.416748
2.041548	2647.276367
2.041668	2618.574707
2.041789	2600.159668
2.041910	2643.404541
2.042031	2604.443359
2.042151	2683.625977
2.042272	2672.914795
2.042393	2549.249512
2.042513	2651.503174
2.042634	2599.740479
2.042755	2666.028564
2.042876	2609.149170
2.042997	2547.158203
2.043118	2615.986816
2.043238	2625.814453
2.043359	2622.819336
2.043480	2642.896240
2.043601	2632.210449
2.043722	2657.404053
2.043843	2551.918945
2.043964	2582.240967
2.044085	2653.534180
2.044206	2555.783936
2.044327	2627.057861
2.044448	2634.306885
2.044569	2638.993408
2.044690	2584.816406
2.044812	2602.303711
2.044933	2509.774414
2.045054	2619.354736
2.045175	2457.799316
2.045296	2613.380127
2.045418	2651.301514
2.045539	2602.296631
2.045660	2617.204590
2.045781	2466.003418
2.045903	2575.464355
2.046024	2577.595947
2.046145	2669.123291
2.046267	2492.475098
2.046388	2606.966064
2.046510	2568.243896
2.046631	2631.634766
2.046753	2513.806396
2.046874	2592.495117
2.046995	2620.132813
2.047117	2619.702393
2.047239	2552.961426
2.047360	2537.241943
2.047482	2496.031738
2.047603	2495.621826
2.047725	2734.792725
2.047847	2456.576904
2.047968	2524.966309
2.048090	2570.406006
2.048212	2506.307129
2.048333	2518.628418
2.048455	2630.248291
2.048577	2464.338867
2.048699	2575.930664
2.048820	2552.602783
2.048942	2521.648438
2.049064	2615.366943
2.049186	2589.500000
2.049308	2505.145508
2.049430	2504.733643
2.049551	2575.510742
2.049674	2516.620605
2.049795	2518.748535
2.049917	2635.229736
2.050040	2530.624268
2.050161	2565.773438
2.050283	2555.191650
2.050405	2582.706543
2.050528	2440.091309
2.050650	2419.380371
2.050772	2596.662354
2.050894	2540.402344
2.051016	2494.310547
2.051138	2463.456055
2.051260	2549.295898
2.051383	2480.399414
2.051505	2482.527100
2.051627	2426.340820
2.051749	2491.850342
2.051872	2615.632568
2.051994	2491.030762
2.052116	2500.755859
2.052239	2507.944336
2.052361	2510.064697
2.052484	2517.249268
2.052606	2453.534424
2.052728	2425.282959
2.052851	2394.509766
2.052973	2475.100830
2.053096	2482.284668
2.053218	2509.705566
2.053341	2526.999512
2.053463	2395.069824
2.053586	2417.434082
2.053709	2404.394775
2.053831	2495.002441
2.053954	2492.064453
2.054076	2415.843262
2.054199	2445.765137
2.054322	2422.626953
2.054445	2439.908691
2.054567	2431.931152
2.054690	2449.205566
2.054813	2403.360840
2.054936	2486.261230
2.055058	2478.281006
2.055181	2450.116699
2.055304	2401.778809
2.055427	2469.489990
2.055550	2491.781982
2.055673	2501.458252
2.055796	2468.270752
2.055919	2445.177246
2.056042	2454.856201
2.056165	2464.531982
2.056288	2411.215576
2.056411	2446.086426
2.056534	2480.945801
2.056657	2387.359863
2.056780	2538.040771
2.056903	2404.196045
2.057026	2461.692871
2.057149	2476.387451
2.057273	2403.008789
2.057396	2417.708008
2.057519	2460.071777
2.057642	2421.941650
2.057765	2451.717773
2.057889	2388.459717
2.058012	2418.231445
2.058136	2312.272949
2.058259	2301.840332
2.058382	2429.599365
2.058506	2476.928955
2.058629	2378.565430
2.058753	2413.331299
2.058876	2372.760010
2.058999	2289.524658
2.059123	2341.857910
2.059246	2313.866455
2.059370	2403.816406
2.059494	2408.437988
2.059617	2498.342773
2.059741	2307.325928
2.059864	2424.800537
2.059988	2366.737061
2.060112	2391.414307
2.060235	2300.792969
2.060359	2340.508301
2.060483	2295.023682
2.060606	2372.302734
2.060730	2452.061035
2.060854	2323.940186
2.060978	2396.168457
2.061101	2288.126465
2.061225	2405.390625
2.061349	2297.382568
2.061473	2367.064941
2.061597	2416.710205
2.061721	2351.276611
2.061845	2298.369141
2.061969	2343.000000
2.062093	2372.614990
2.062217	2339.727783
2.062341	2279.358887
2.062465	2388.934082
2.062589	2326.078369
2.062713	2410.628906
2.062837	2340.297363
2.062961	2287.469482
2.063085	2287.092285
2.063210	2336.643311
2.063334	2391.170166
2.063458	2370.811035
2.063582	2370.420166
2.063706	2382.502930
2.063831	2302.290771
2.063955	2227.092773
2.064079	2281.583008
2.064204	2323.589844
2.064328	2330.684814
2.064452	2272.977539
2.064577	2292.537598
2.064701	2274.719238
2.064825	2289.290283
2.064950	2363.632324
2.065074	2313.437500
2.065199	2370.322021
2.065324	2310.184814
2.065448	2289.891602
2.065573	2366.660400
2.065697	2251.813232
2.065822	2316.124023
2.065946	2265.994385
2.066071	2275.568359
2.066195	2327.410400
2.066320	2287.248047
2.066445	2296.813721
2.066570	2256.669434
2.066694	2236.417725
2.066819	2168.967285
2.066944	2230.711426
2.067069	2138.447266
2.067194	2274.674072
2.067318	2244.504395
2.067443	2221.791748
2.067568	2256.173584
2.067693	2285.580811
2.067818	2285.203613
2.067943	2284.826416
2.068068	2237.321533
2.068193	2301.431885
2.068318	2236.582764
2.068443	2149.442627
2.068568	2250.717041
2.068693	2242.910400
2.068818	2334.223877
2.068943	2224.826904
2.069068	2251.708008
2.069193	2181.988037
2.069319	2191.532959
2.069444	2171.364014
2.069569	2141.299561
2.069694	2252.324463
2.069819	2259.376709
2.069945	2256.529297
2.070070	2283.368896
2.070195	2248.363525
2.070321	2203.477539
2.070446	2299.546143
2.070571	2299.166260
2.070697	2283.955566
2.070822	2244.035889
2.070948	2246.136230
2.071073	2203.765137
2.071199	2136.706055
2.071324	2267.251221
2.071450	2232.305420
2.071575	2147.992188
2.071701	2241.442139
2.071826	2263.284912
2.071952	2156.798584
2.072078	2269.938965
2.072203	2143.751221
2.072329	2089.133789
2.072454	2138.110596
2.072580	2179.674072
2.072706	2130.008057
2.072832	2156.769775
2.072958	2195.844727
2.073083	2232.442871
2.073209	2175.409668
2.073335	2231.705078
2.073461	2243.650391
2.073587	2120.157715
2.073713	2171.509766
2.073838	2151.457764
2.073964	2143.718506
2.074090	2143.364258
2.074217	2152.851318
2.074342	2174.635498
2.074469	2147.220459
2.074594	2176.375732
2.074721	2183.392090
2.074847	2133.863770
2.074973	2135.968750
2.075099	2147.903564
2.075225	2191.776855
2.075351	2149.649902
2.075477	2065.779053
2.075603	2129.291504
2.075730	2099.473145
2.075856	2162.958984
2.075982	2155.237061
2.076109	2100.885986
2.076235	2127.531250
2.076361	2097.737549
2.076488	2112.109131
2.076614	2106.854248
2.076741	2106.505859
2.076867	2218.943359
2.076993	2137.677979
2.077120	2201.051758
2.077246	2151.674561
2.077373	2090.062500
2.077499	2033.370239
2.077626	2123.663086
2.077753	2182.088379
2.077879	2073.987793
2.078006	2068.748047
2.078132	1997.419067
2.078259	2090.090332
2.078386	2106.873291
2.078512	2135.884033
2.078639	2067.036865
2.078766	2103.381836
2.078892	2081.025146
2.079019	2163.810059
2.079146	2053.446045
2.079273	1972.448364
2.079400	2077.203857
2.079527	2032.879517
2.079654	2110.717773
2.079780	2151.891846
2.079907	2100.250244
2.080034	2036.417236
2.080161	2023.873413
2.080288	2016.215454
2.080415	2067.132813
2.080542	2103.392578
2.080669	2171.356689
2.080796	2058.788330
2.080923	2099.908936
2.081050	2058.106445
2.081177	2074.832520
2.081305	2045.236450
2.081432	2030.273926
2.081559	2061.617432
2.081686	2068.585449
2.081814	2068.242920
2.081941	1929.065918
2.082068	2001.805054
2.082195	2025.822266
2.082323	2013.314331
2.082450	2078.700928
2.082577	2063.754395
2.082705	2022.046997
2.082832	1977.920532
2.082960	2045.701782
2.083087	2106.164307
2.083215	1991.527466
2.083342	2034.960205
2.083470	2063.793213
2.083597	1988.107300
2.083724	1953.757202
2.083852	2033.611694
2.083980	2062.425537
2.084107	1960.072632
2.084235	2001.031250
2.084363	2061.400391
2.084490	2034.354858
2.084618	2060.717285
2.084746	1960.875854
2.084874	1992.094360
2.085001	1952.947754
2.085129	1981.731567
2.085257	2066.285645
2.085385	2007.747559
2.085513	2043.781006
2.085641	2038.594116
2.085768	1914.652100
2.085896	2047.611084
2.086024	2001.238281
2.086152	1993.639282
2.086280	2036.904785
2.086408	2065.626221
2.086536	1973.278198
2.086664	1987.475708
2.086792	1955.681030
2.086920	2040.056519
2.087049	1858.248657
2.087177	1964.385010
2.087305	2017.272705
2.087433	2048.377197
2.087561	2019.021606
2.087689	1970.334961
2.087818	1924.081543
2.087946	1945.513428
2.088074	1986.269287
2.088202	1971.443970
2.088331	1971.116943
2.088459	1951.468506
2.088587	2004.269897
2.088716	1890.461426
2.088844	1952.911377
2.088973	2034.649048
2.089101	1993.287476
2.089230	1942.288330
2.089358	1941.966064
2.089487	1956.115723
2.089615	1965.437378
2.089744	1849.374634
2.089872	1832.192261
2.090001	1880.095825
2.090129	1978.593018
2.090258	1942.120850
2.090387	1891.205811
2.090515	2006.513306
2.090644	1919.478638
2.090773	1880.632324
2.090901	1981.438477
2.091030	1937.780396
2.091159	1927.831543
2.091288	1953.981689
2.091417	1994.559082
2.091546	1934.088379
2.091674	1832.749512
2.091803	1760.301758
2.091932	1930.720825
2.092061	1959.248047
2.092190	1942.097656
2.092319	1958.597412
2.092448	1900.605347
2.092577	2018.006714
2.092706	1914.386108
2.092835	1904.461792
2.092964	1829.708496
2.093093	1937.440430
2.093223	1879.509155
2.093352	1912.796875
2.093481	1917.278442
2.093610	1950.548706
2.093739	1861.469116
2.093868	1880.347046
2.093998	1887.228760
2.094127	1920.481689
2.094256	1903.382202
2.094386	1919.843628
2.094515	1852.425171
2.094645	1823.365356
2.094774	1789.523804
2.094903	1904.196777
2.095033	1891.906250
2.095162	1927.508179
2.095292	1881.701538
2.095421	1881.388794
2.095551	1878.682983
2.095680	1844.871094
2.095810	1854.134277
2.095939	1896.882690
2.096069	1831.993286
2.096198	1822.123779
2.096328	1771.613281
2.096458	1924.307251
2.096588	1947.887817
2.096717	1804.185059
2.096847	1870.784180
2.096977	1805.974121
2.097106	1796.119995
2.097236	1886.567749
2.097366	1814.624146
2.097496	1799.998901
2.097626	1847.437012
2.097756	1856.675659
2.097886	1780.012573
2.098016	1820.273071
2.098145	1812.814575
2.098275	1824.437500
2.098405	1821.749634
2.098536	1814.294434
2.098665	1809.225220
2.098796	1825.607422
2.098926	1794.326050
2.099056	1770.202515
2.099186	1841.371460
2.099316	1783.904053
2.099446	1743.124878
2.099576	1780.929688
2.099707	1847.288086
